value
698
691
685
677
670
662
656
649
644
637
630
625
618
611
612
616
625
634
640
645
642
637
630
625
617
611
605
600
594
587
581
575
571
573
583
597
610
624
633
637
636
630
623
616
609
603
597
592
585
579
574
567
563
563
572
580
586
592
595
594
592
592
593
590
582
577
573
568
563
558
553
548
540
540
545
554
566
580
591
597
599
593
588
582
576
571
570
570
570
567
562
557
551
545
545
552
561
570
577
577
573
566
561
555
549
550
552
555
555
552
547
543
536
531
535
541
551
561
568
569
565
560
553
549
545
545
547
551
553
552
548
542
537
532
531
540
550
557
561
562
558
552
546
541
537
538
542
547
551
549
544
539
534
528
526
530
537
545
547
548
543
539
533
529
524
523
525
529
529
526
520
515
512
507
509
518
528
540
543
544
541
537
531
531
545
556
559
556
550
545
538
533
529
525
529
537
549
559
565
570
569
564
557
552
546
545
546
549
550
549
544
539
533
528
531
539
548
558
563
565
561
556
550
544
539
537
541
542
542
539
534
528
522
519
521
529
538
545
549
549
544
539
535
528
525
524
528
530
532
528
524
519
515
511
505
515
532
552
565
567
561
556
550
545
540
539
542
543
542
540
533
529
523
519
517
524
532
541
547
549
546
539
535
528
523
523
522
522
520
516
512
506
502
501
507
518
531
544
551
555
553
548
541
538
532
528
526
524
519
514
508
502
502
508
520
534
550
563
574
579
576
571
565
560
556
550
547
545
540
536
530
525
520
521
528
541
556
565
576
580
579
572
568
562
557
551
548
543
539
534
528
525
520
523
532
545
557
570
579
581
575
569
565
563
563
559
554
548
543
538
533
527
525
529
541
555
570
584
594
597
596
592
586
579
573
571
571
569
567
560
553
550
545
551
563
578
591
604
614
617
614
610
605
598
592
585
581
576
571
566
559
553
547
548
557
573
590
603
610
613
611
604
598
592
586
580
574
570
566
559
552
547
544
549
561
577
589
603
611
616
610
604
598
591
587
581
579
584
586
586
579
573
571
581
597
611
625
635
642
644
641
634
627
621
614
611
614
613
610
603
596
590
584
584
588
600
610
622
626
627
623
617
612
604
598
595
593
592
590
583
577
571
565
559
560
566
580
594
602
605
601
593
588
583
577
572
572
571
570
564
559
554
549
545
547
557
565
574
580
578
573
568
562
558
558
565
574
577
574
571
563
558
553
549
553
562
570
577
582
579
572
566
560
555
552
552
555
557
559
555
548
544
537
535
538
549
557
562
562
558
553
546
541
536
532
532
535
534
533
529
522
519
514
512
517
526
537
546
551
553
545
542
536
533
540
554
569
578
580
575
569
563
556
555
562
569
578
585
586
581
575
571
563
559
558
563
570
575
579
576
569
564
559
553
553
558
564
567
568
563
556
550
547
542
544
548
556
563
571
572
571
568
561
556
557
563
569
571
570
567
562
557
553
545
546
552
559
567
572
570
567
562
555
550
544
545
548
551
550
546
540
535
531
526
529
535
542
547
553
557
559
557
551
546
546
554
567
576
581
576
569
565
558
556
561
570
581
590
597
596
592
587
581
575
569
567
567
569
571
567
561
556
549
545
544
547
555
561
568
576
582
583
580
574
568
568
573
576
573
569
563
558
552
549
553
562
574
583
589
591
587
581
575
570
565
563
562
562
559
554
549
543
537
537
541
551
564
576
590
600
607
607
603
596
590
586
586
584
579
573
567
562
556
556
562
575
588
601
613
616
617
609
602
596
589
584
578
573
567
562
556
550
547
552
562
578
596
613
625
632
631
627
620
614
606
600
595
588
582
577
574
569
568
576
584
602
617
634
649
657
663
663
657
649
643
635
629
622
615
609
602
596
596
603
616
634
655
678
699
714
720
718
709
701
693
684
676
669
662
654
648
642
643
653
668
685
705
719
731
738
740
738
731
721
714
707
696
690
682
675
666
662
660
669
685
702
721
738
752
759
759
757
749
740
731
723
714
707
699
690
683
681
688
706
731
757
777
790
795
790
785
775
767
758
748
740
731
722
714
706
697
691
686
693
710
729
749
769
784
793
797
796
787
779
769
759
751
743
734
724
717
710
712
721
735
755
772
789
802
807
807
804
796
785
777
768
759
750
741
732
724
721
723
734
750
766
782
796
810
816
815
809
799
788
781
771
762
754
745
736
727
720
716
721
729
745
758
773
784
789
790
786
777
769
759
748
742
734
725
716
708
701
699
704
714
729
745
757
768
774
777
779
776
768
758
749
746
743
737
729
721
716
713
717
725
736
747
754
759
759
755
747
737
728
721
713
704
697
689
681
674
668
668
676
687
703
720
733
745
752
750
746
738
729
721
712
704
696
688
680
674
668
668
675
689
708
727
745
757
764
765
759
751
742
732
725
716
707
699
691
684
677
676
687
701
718
735
751
761
766
767
762
755
747
738
730
722
714
705
698
690
684
681
691
701
717
739
761
783
798
805
799
788
779
770
761
753
743
736
727
719
711
710
715
729
747
763
778
790
796
794
787
778
769
758
750
742
732
724
715
708
702
702
709
719
734
750
764
774
780
779
775
767
757
748
739
731
722
713
706
700
696
700
717
734
760
781
801
814
822
824
821
811
802
793
784
773
765
756
748
741
739
749
764
786
814
840
863
882
897
905
908
903
889
878
869
858
846
837
832
835
841
854
878
908
941
972
1001
1026
1048
1069
1093
1108
1109
1100
1083
1069
1056
1042
1033
1034
1040
1056
1077
1102
1130
1160
1185
1209
1226
1235
1238
1232
1221
1206
1190
1174
1157
1145
1140
1138
1141
1154
1173
1195
1219
1242
1262
1275
1283
1285
1283
1272
1256
1237
1221
1204
1188
1172
1156
1146
1138
1142
1150
1165
1181
1196
1208
1212
1211
1202
1190
1174
1158
1142
1128
1112
1097
1082
1069
1054
1041
1031
1028
1030
1034
1039
1041
1039
1029
1015
1003
988
976
968
964
958
952
941
931
918
906
896
891
885
882
878
874
866
856
844
835
828
828
832
836
838
835
827
819
809
800
791
781
773
768
760
753
745
736
728
720
714
712
715
721
730
742
751
751
746
739
730
721
713
705
698
690
682
674
667
666
671
683
700
715
728
734
738
736
727
720
713
704
697
688
682
673
666
660
653
656
665
680
698
715
730
741
745
745
739
732
722
713
707
698
689
683
675
668
668
672
683
699
714
726
738
750
759
767
767
761
752
744
735
727
719
710
703
694
691
694
705
720
740
758
774
785
791
790
783
773
763
756
748
740
730
723
714
707
706
709
720
736
752
768
781
791
797
793
783
775
764
756
747
741
731
723
713
706
700
700
707
722
739
754
767
778
784
781
776
766
756
746
738
730
722
713
705
699
696
698
710
725
744
762
776
785
787
782
776
767
759
750
741
732
724
714
708
699
698
706
725
750
774
797
815
831
838
842
839
832
821
812
802
792
782
774
769
771
780
796
817
845
871
898
919
939
952
957
959
958
949
937
925
913
902
892
891
897
908
921
943
966
995
1023
1047
1065
1075
1079
1077
1070
1056
1042
1028
1014
1000
988
981
988
998
1010
1029
1052
1073
1091
1106
1117
1124
1120
1113
1101
1086
1072
1057
1044
1029
1014
1004
998
1000
1008
1025
1044
1062
1083
1098
1108
1110
1107
1099
1085
1070
1056
1043
1029
1017
1004
990
981
977
980
984
996
1015
1034
1045
1052
1052
1044
1031
1017
1004
990
978
966
955
943
931
920
909
906
913
927
942
956
965
973
972
968
955
944
932
920
909
898
887
876
865
854
847
844
853
865
878
893
902
904
902
894
882
872
860
850
842
835
827
819
809
799
791
784
786
795
808
817
825
830
825
816
807
798
788
781
779
781
778
772
764
755
747
738
733
738
745
753
756
756
750
742
733
724
719
717
718
722
722
722
715
707
699
691
683
678
673
671
665
658
652
644
637
632
625
621
624
630
631
631
627
621
615
609
601
600
607
613
618
619
613
607
601
595
592
597
605
613
620
624
621
615
607
601
595
595
597
599
600
596
591
585
579
574
573
578
588
600
612
621
624
620
614
607
600
596
595
593
593
587
581
576
570
566
565
573
586
599
608
615
617
612
606
600
592
588
591
593
592
590
583
576
572
567
568
576
589
600
611
618
618
614
606
602
595
589
588
590
588
584
578
573
567
561
564
571
583
596
607
617
615
610
605
597
592
589
591
593
592
588
581
576
571
567
578
596
622
648
662
667
662
653
647
641
631
626
629
630
630
627
620
612
605
601
605
612
624
636
647
652
652
648
640
634
626
620
619
618
619
614
609
604
595
590
590
593
602
612
619
621
617
612
605
599
593
596
600
604
606
602
598
590
584
581
583
590
601
614
626
632
632
626
618
613
606
601
603
604
604
599
593
587
582
577
583
591
605
619
631
637
640
633
626
620
612
610
611
610
608
603
597
589
585
579
582
592
601
611
618
621
618
611
605
599
594
593
596
596
596
590
584
577
574
569
572
581
597
610
624
630
631
626
620
613
607
601
597
594
588
582
578
572
568
570
583
603
624
648
669
689
700
704
706
697
690
683
674
667
659
652
645
647
652
666
688
716
747
776
803
826
844
851
857
851
842
831
819
810
801
791
784
783
786
796
813
836
861
887
910
932
945
950
952
945
931
919
908
896
885
874
868
865
869
878
898
921
948
974
996
1013
1025
1027
1026
1015
1002
988
975
964
951
938
925
916
908
906
914
927
942
958
969
977
977
971
959
945
933
922
912
903
893
882
871
860
851
848
854
865
881
899
912
922
924
920
913
901
891
879
869
857
848
835
826
819
816
824
841
863
887
914
938
955
970
978
979
974
965
952
939
928
916
905
898
898
905
922
948
980
1015
1048
1077
1098
1114
1120
1122
1116
1104
1089
1075
1060
1048
1035
1025
1021
1023
1032
1049
1073
1099
1125
1147
1165
1177
1186
1189
1182
1170
1154
1139
1125
1109
1097
1089
1090
1093
1105
1127
1156
1186
1215
1241
1260
1272
1278
1280
1272
1258
1240
1224
1207
1190
1175
1166
1163
1163
1169
1183
1202
1225
1248
1269
1283
1289
1290
1282
1270
1251
1234
1218
1201
1185
1169
1153
1141
1130
1128
1134
1142
1154
1164
1172
1175
1175
1172
1161
1145
1129
1114
1099
1087
1072
1058
1046
1032
1016
1009
1007
1012
1021
1027
1031
1031
1021
1007
993
982
977
976
984
988
989
986
977
963
952
940
928
924
919
913
907
896
886
875
864
862
868
879
891
901
908
906
897
887
876
864
854
846
845
845
845
838
828
817
808
799
792
791
790
785
778
770
760
751
743
748
755
775
799
823
847
863
875
882
881
877
865
854
844
833
822
815
810
814
823
841
871
904
940
976
1008
1036
1056
1068
1076
1075
1068
1059
1045
1033
1023
1017
1021
1031
1046
1071
1102
1141
1178
1215
1250
1278
1299
1310
1313
1308
1296
1279
1263
1247
1231
1219
1213
1211
1211
1221
1240
1264
1288
1312
1330
1341
1344
1341
1331
1312
1296
1276
1258
1241
1225
1207
1190
1175
1163
1157
1162
1167
1175
1185
1188
1185
1178
1164
1148
1132
1118
1111
1107
1105
1102
1091
1077
1062
1049
1035
1027
1023
1026
1024
1017
1004
990
978
966
965
976
989
1004
1013
1018
1016
1011
1000
987
974
962
952
940
932
921
909
897
887
884
890
904
919
934
947
953
955
951
940
929
918
906
896
889
882
873
862
851
840
831
833
842
857
869
878
880
879
869
859
848
838
831
829
829
828
826
817
808
798
788
788
793
805
816
824
830
828
821
813
803
792
784
777
771
765
756
748
739
731
732
740
755
772
791
806
815
817
813
805
796
786
776
769
761
755
746
738
730
721
720
729
744
762
782
796
804
807
804
797
788
777
767
759
751
744
736
726
718
711
714
725
742
763
781
796
806
810
806
796
787
777
769
761
755
747
739
730
722
714
713
723
738
758
774
787
796
799
793
784
775
765
757
750
745
741
730
723
716
707
706
712
727
744
761
775
785
787
781
772
763
752
745
738
734
727
721
713
704
696
694
701
714
731
747
761
771
774
770
763
753
745
736
729
724
717
710
702
695
687
686
696
710
727
746
760
770
773
769
760
752
742
735
728
722
717
710
700
694
684
686
693
709
728
746
758
766
770
763
753
745
736
729
725
725
723
718
708
700
692
686
693
703
719
733
745
749
749
742
733
725
717
712
710
714
711
708
701
694
685
678
678
687
695
706
712
716
715
707
699
690
683
679
682
684
685
687
679
669
665
655
653
657
664
671
673
671
664
656
649
642
640
645
654
665
676
684
685
680
672
667
656
653
657
661
662
658
651
645
638
631
630
638
651
665
678
684
686
681
673
667
658
656
658
665
667
666
661
655
647
641
635
631
632
635
636
634
626
621
615
608
615
625
640
654
664
670
669
662
654
648
642
637
637
637
634
627
623
617
609
610
619
635
654
672
686
696
698
695
691
682
676
668
661
653
648
640
632
625
622
628
642
660
678
697
712
722
725
720
713
705
696
689
682
676
670
662
656
648
646
653
667
687
709
730
747
759
766
764
758
750
742
732
724
716
707
701
692
685
685
693
710
731
753
775
790
803
807
804
797
787
779
769
760
751
742
733
724
720
725
734
752
773
795
816
831
840
840
834
824
813
803
795
785
775
766
757
749
741
742
750
769
791
817
839
856
869
873
869
862
853
842
832
822
812
802
793
782
780
783
796
815
838
864
887
904
917
921
919
914
904
891
880
870
859
848
837
830
829
834
847
865
886
911
933
950
961
963
960
956
944
931
921
907
896
885
875
864
863
866
876
894
916
939
958
974
986
985
983
975
964
949
939
925
915
902
892
883
876
877
886
902
922
945
962
977
988
988
981
970
958
945
935
922
912
900
888
878
866
862
866
879
895
912
926
937
944
944
937
926
914
905
893
882
870
859
848
839
831
828
836
848
865
882
900
910
918
918
913
905
893
880
871
862
850
839
830
819
811
807
814
828
847
868
882
893
899
898
891
882
868
859
848
839
829
820
809
800
789
785
787
797
812
829
841
851
857
853
845
835
826
816
806
798
787
778
769
760
750
745
751
763
779
797
814
826
832
834
829
820
810
801
790
782
772
762
752
745
737
733
740
753
768
787
803
814
821
821
818
809
798
789
779
771
760
753
742
735
728
727
737
753
772
791
807
821
828
828
822
812
802
794
784
773
765
755
747
739
732
731
740
753
769
787
803
812
819
817
809
801
790
781
772
764
755
747
738
729
721
717
717
730
744
760
775
784
786
783
777
767
756
749
740
734
728
720
712
704
695
688
692
705
718
733
748
756
760
757
750
742
732
725
717
712
706
699
690
685
677
669
670
677
690
704
715
722
723
719
711
704
695
690
684
683
680
677
669
662
655
647
646
653
663
675
684
690
691
686
678
671
662
657
652
653
652
650
644
636
630
623
620
623
632
643
652
659
661
656
649
642
634
630
631
637
640
642
640
633
626
619
613
618
626
637
642
643
642
635
627
622
615
612
613
619
623
625
625
620
612
605
600
597
599
606
608
611
610
603
597
590
585
585
592
600
611
617
616
614
607
601
595
592
594
601
605
608
602
597
591
585
580
583
587
599
610
615
618
610
604
599
592
590
594
598
604
606
602
597
590
583
577
578
584
592
597
602
601
594
588
583
577
578
583
591
596
598
599
592
587
581
575
571
573
579
586
591
587
583
577
570
566
566
571
577
585
592
603
607
601
597
591
588
592
600
609
619
625
626
623
615
609
615
630
645
655
659
656
649
640
634
627
627
630
633
637
636
632
625
617
612
608
613
623
636
644
652
650
646
639
631
625
619
618
617
618
616
613
604
599
592
594
601
615
627
638
644
644
640
633
627
619
614
611
613
615
615
610
603
596
591
596
608
623
639
648
656
654
647
641
633
628
622
619
618
618
614
608
601
596
589
595
605
618
626
630
631
629
627
624
618
611
606
604
601
599
596
588
582
576
573
576
588
603
622
632
643
646
641
635
628
621
614
609
605
599
595
589
582
575
572
572
582
592
601
603
603
599
597
594
589
584
578
572
567
561
557
551
545
541
544
553
565
580
596
608
618
618
617
612
604
598
592
589
588
587
585
578
572
568
564
567
580
597
611
621
628
627
623
617
609
604
599
597
598
597
594
587
583
577
571
575
583
598
611
622
629
632
626
620
613
607
602
599
599
598
597
590
584
578
573
574
584
596
609
618
624
621
616
609
603
598
595
594
597
594
592
585
580
575
569
573
578
591
602
613
617
614
606
600
595
601
609
614
610
603
598
592
585
579
574
575
587
597
608
617
623
623
620
614
608
601
595
594
593
591
585
580
573
567
564
565
575
587
599
609
617
618
613
606
600
593
589
588
588
589
586
580
574
567
563
564
571
586
598
605
611
609
602
595
590
582
581
582
584
584
583
579
572
566
560
562
568
579
588
599
602
601
595
590
582
577
573
573
576
577
574
569
564
557
552
553
559
569
582
590
594
592
586
580
576
568
566
566
564
565
562
557
551
546
541
545
555
569
579
588
594
592
586
581
573
569
568
568
571
572
569
563
559
553
547
549
558
571
584
591
598
597
591
585
579
573
573
575
578
581
581
574
569
563
558
554
555
557
562
567
578
586
584
578
573
567
565
567
568
570
570
565
559
553
548
547
555
568
582
591
596
592
585
579
573
570
570
575
581
585
586
581
574
570
563
561
566
574
584
590
592
588
582
577
572
565
563
565
573
576
575
569
565
558
554
554
561
573
582
589
592
589
584
578
571
566
566
571
576
580
580
575
569
564
558
556
560
569
578
585
588
585
578
571
566
564
564
570
577
583
583
579
574
568
563
559
566
576
585
590
592
587
580
576
570
568
575
588
607
622
630
627
622
614
610
614
624
633
644
651
651
644
636
630
624
619
619
625
631
635
636
630
624
618
610
610
615
622
631
639
640
635
629
622
614
611
613
616
623
626
628
623
614
608
601
602
608
617
623
628
628
622
615
609
602
596
595
598
602
603
599
593
586
581
578
580
592
603
614
623
626
624
618
611
605
598
598
602
607
606
604
597
591
585
579
577
584
594
605
614
619
618
613
605
599
595
593
594
597
597
593
588
581
576
573
575
584
595
606
612
615
612
607
598
593
588
585
587
587
586
583
576
571
564
561
565
575
587
597
607
609
605
598
592
586
580
578
579
581
583
581
575
569
563
560
568
581
595
608
618
623
620
614
609
601
596
595
600
604
604
602
595
589
582
578
583
593
606
616
623
624
620
614
607
601
597
591
591
594
592
590
583
576
571
568
575
588
604
614
622
626
624
616
611
605
599
596
597
596
597
593
587
581
573
573
577
589
603
613
621
625
622
617
610
603
598
593
593
595
592
587
582
577
570
569
578
586
602
613
623
626
622
616
609
603
598
593
592
593
593
590
583
577
572
570
577
589
601
612
617
619
614
607
601
595
590
586
585
587
587
584
578
571
563
562
567
575
585
593
601
603
602
598
592
585
579
577
578
580
583
584
577
571
565
561
568
579
591
600
604
604
599
592
587
581
577
578
581
583
586
587
585
579
574
567
568
581
598
612
617
618
611
606
599
592
589
590
591
595
593
592
585
580
574
568
570
577
587
595
600
600
595
589
582
577
573
574
577
580
584
580
576
570
564
559
562
569
578
589
596
596
590
584
578
572
570
572
577
583
584
581
576
571
564
558
558
565
573
582
585
585
581
575
567
564
560
561
569
572
576
572
566
560
555
552
556
564
576
583
590
589
584
578
571
567
561
560
563
565
566
562
557
552
546
541
542
547
555
558
555
548
543
538
533
529
523
522
520
521
521
516
512
506
501
497
494
495
500
509
516
519
515
511
506
502
499
503
509
516
520
520
515
509
503
501
502
511
517
524
527
526
521
517
513
507
505
506
511
516
519
519
514
511
505
500
501
507
513
520
525
522
518
513
508
503
507
517
525
535
542
542
538
533
528
521
520
524
533
538
542
538
534
529
524
519
521
527
538
550
557
560
557
552
545
539
537
540
547
550
553
548
544
537
532
528
531
540
550
559
566
568
563
558
553
546
549
555
562
566
567
561
557
551
545
541
543
551
561
571
575
575
571
565
559
554
554
561
567
573
576
571
567
561
556
551
552
556
566
574
581
581
577
571
565
559
558
565
575
583
585
583
577
572
566
561
558
560
567
571
575
570
564
558
555
548
546
547
548
547
548
545
545
543
540
534
530
530
531
533
531
528
523
518
514
513
521
532
545
556
564
562
559
552
548
540
540
542
543
545
543
538
532
526
523
520
530
543
558
572
577
577
570
565
560
553
550
550
551
552
551
547
542
538
532
531
540
551
563
573
580
581
576
569
564
558
554
556
560
561
563
557
552
547
542
536
532
536
547
558
569
571
567
563
557
551
546
547
549
549
548
544
538
534
528
533
544
558
572
583
587
586
582
575
569
562
561
563
567
569
567
561
556
550
546
546
554
562
571
580
585
583
580
573
566
562
558
559
561
563
560
555
549
543
540
541
550
562
573
583
588
585
581
575
569
565
565
574
588
596
598
591
585
580
577
580
589
601
612
623
626
624
621
615
606
601
599
602
608
613
615
608
603
594
588
586
591
601
609
611
611
606
599
592
587
580
576
577
577
578
576
571
565
558
554
558
568
580
593
604
610
608
603
596
590
583
583
585
588
593
593
588
582
576
571
568
573
581
590
597
600
597
593
586
578
574
572
574
576
578
578
572
566
561
555
558
568
583
596
606
610
607
600
594
588
584
583
588
595
599
599
593
586
581
575
576
585
597
607
615
619
615
609
603
595
590
585
584
582
582
577
571
563
558
558
561
571
583
592
599
606
602
598
591
585
579
574
576
576
576
574
569
563
557
553
559
570
585
598
609
612
609
601
595
591
591
591
591
587
582
575
569
563
559
553
566
584
603
617
625
629
626
620
613
606
601
597
598
600
599
596
591
586
579
573
578
588
601
613
619
625
621
614
608
602
596
592
592
593
593
589
582
577
571
567
571
581
594
606
612
616
614
608
602
596
588
585
586
588
588
584
578
574
568
563
568
577
592
602
612
616
616
610
605
598
590
586
587
584
585
580
573
569
562
559
564
573
584
595
601
603
597
592
586
586
602
620
635
639
632
626
618
612
604
603
605
616
630
641
652
657
656
648
643
634
627
625
625
627
629
628
623
616
609
604
600
607
618
627
633
633
629
623
616
609
605
601
604
607
610
608
600
593
589
583
585
593
606
620
625
628
623
618
611
603
597
598
602
604
607
604
599
590
585
579
580
590
599
610
615
616
612
603
597
592
586
585
587
591
592
595
591
587
581
575
570
576
591
606
617
618
611
604
598
589
584
579
574
572
570
567
562
555
553
546
545
551
561
567
577
582
583
579
573
567
560
559
559
562
559
555
548
543
539
538
547
560
575
590
599
603
600
595
589
582
577
573
570
571
566
563
556
552
545
543
552
566
580
589
600
603
600
594
588
583
577
574
575
578
577
570
566
560
554
552
559
569
583
595
604
605
599
594
589
582
574
574
573
574
573
568
563
557
552
553
562
577
593
606
613
614
611
604
597
593
586
585
587
589
591
585
579
572
566
566
570
579
589
600
614
621
621
615
607
601
600
606
617
630
639
638
631
624
618
621
631
643
657
668
676
679
675
668
660
653
646
641
640
639
635
630
623
616
609
605
609
619
630
641
648
651
645
638
633
624
618
614
611
606
604
597
591
584
578
577
584
595
608
620
625
628
625
617
610
605
598
597
597
598
596
590
585
578
573
570
581
593
607
620
627
628
623
617
611
604
598
595
592
590
586
581
575
569
563
565
575
588
603
615
626
630
629
621
615
609
604
601
600
599
598
593
586
580
574
569
571
583
598
616
623
624
618
612
607
599
597
601
613
625
632
630
622
615
612
616
628
637
648
655
660
661
656
649
642
635
629
624
620
618
616
609
602
597
591
589
593
603
616
625
630
631
625
618
611
606
600
598
598
602
598
595
588
582
576
572
579
589
598
607
611
611
606
599
594
587
585
587
592
596
601
602
602
599
592
586
581
584
594
607
622
628
627
619
614
606
602
600
601
603
603
599
592
586
579
574
575
583
590
594
600
598
593
586
581
575
573
576
582
584
585
581
577
571
563
560
564
572
584
593
601
600
597
590
585
579
575
579
583
590
592
589
583
576
571
568
572
581
590
598
601
599
593
587
582
576
570
571
572
573
571
567
560
555
550
549
559
570
583
591
596
595
587
582
575
570
566
568
573
581
588
590
583
578
574
578
586
596
606
613
617
618
611
605
599
593
588
586
590
593
593
588
584
578
572
566
560
564
575
590
603
605
601
595
589
584
578
575
576
575
574
570
563
557
552
546
542
552
563
578
585
587
580
575
568
564
563
564
569
571
569
563
558
552
546
543
545
552
559
563
568
564
559
554
548
543
540
541
546
548
549
545
540
534
529
528
532
543
554
561
567
566
561
554
547
544
540
542
545
547
548
543
538
532
528
528
535
545
556
566
572
570
564
558
553
549
546
547
550
554
553
549
544
538
535
533
538
548
560
568
574
571
565
561
555
551
553
566
579
593
602
599
592
586
585
590
599
611
621
628
631
625
618
611
604
598
593
595
597
598
600
597
594
586
579
577
584
599
612
621
624
621
617
610
603
597
593
594
594
595
593
588
582
576
568
568
576
586
594
601
604
600
592
588
581
576
571
572
572
574
570
565
559
554
548
549
558
569
578
585
590
589
584
577
572
566
563
561
562
563
558
553
547
543
539
538
545
557
566
576
582
581
576
570
565
558
556
556
558
558
556
549
544
540
535
537
548
562
575
587
592
590
586
579
574
568
562
566
566
565
565
557
553
547
542
543
546
551
554
561
572
578
578
571
567
560
557
556
555
556
552
547
541
537
534
540
554
566
582
593
599
597
591
584
580
582
586
589
586
582
576
571
565
559
557
561
572
586
599
609
612
607
601
595
588
582
579
581
581
581
579
573
566
561
557
560
570
582
592
600
606
602
596
589
585
577
575
574
572
572
568
562
556
551
548
553
566
581
595
604
609
608
603
598
592
587
583
586
588
589
588
584
580
573
568
575
589
606
619
625
629
625
620
614
607
601
597
597
596
594
590
584
578
573
568
572
581
596
611
620
624
622
615
610
602
598
591
593
595
600
604
607
602
596
590
597
613
630
646
653
656
654
647
640
632
626
622
623
623
625
621
614
607
602
595
597
605
617
627
635
637
634
627
621
614
607
605
604
608
610
608
602
597
592
585
588
594
602
603
604
606
609
608
602
596
590
585
579
576
570
565
560
554
549
549
556
569
581
593
598
602
600
594
586
582
579
580
583
585
583
577
573
568
561
560
568
580
597
611
620
624
622
615
609
602
596
593
594
594
595
589
583
577
570
567
573
585
600
613
623
629
628
620
614
611
615
627
636
646
648
644
636
629
624
623
631
642
655
667
674
674
669
661
653
646
639
635
633
632
627
621
614
607
601
600
608
620
633
645
654
657
655
649
642
636
627
622
617
615
610
604
598
591
587
588
598
609
623
635
647
651
647
639
632
625
619
615
616
615
612
605
600
592
586
588
597
609
622
635
642
646
645
638
630
624
617
614
614
613
610
607
602
594
587
592
606
626
641
655
665
670
668
664
657
649
642
634
630
628
628
623
617
609
605
607
617
627
640
652
659
663
662
656
647
641
632
628
627
621
615
612
603
596
591
594
605
619
634
647
655
656
657
650
642
634
629
622
618
614
608
601
596
589
584
586
595
608
620
634
644
648
647
641
634
626
621
615
612
610
606
601
595
589
583
581
588
599
612
624
633
636
635
629
623
617
610
608
604
602
599
592
586
580
574
576
584
597
612
625
632
635
630
622
617
610
603
600
600
599
595
590
583
577
573
572
583
596
609
622
632
634
631
624
618
611
605
602
602
600
597
592
587
580
574
574
583
595
607
618
625
627
622
617
611
605
599
593
590
584
579
573
566
562
556
557
569
583
595
607
615
618
617
609
604
597
591
587
583
581
575
570
563
558
553
554
565
577
591
603
613
616
616
610
603
596
591
587
583
582
576
573
567
561
557
561
572
587
604
617
626
629
625
618
612
604
601
600
596
590
585
578
573
567
566
575
588
607
625
639
651
655
656
650
641
633
628
622
619
615
610
603
596
589
587
595
608
626
643
658
668
672
666
659
652
644
638
634
630
626
622
615
611
601
598
602
612
624
640
655
664
667
664
656
649
642
635
630
626
621
616
610
603
597
595
601
616
632
651
663
672
676
675
667
659
651
644
639
637
634
626
619
612
607
604
607
620
635
653
665
673
674
669
663
655
649
641
633
629
624
618
611
605
598
593
599
613
630
647
659
672
677
672
665
658
650
643
639
633
629
624
617
610
605
600
603
613
627
641
652
661
663
659
653
645
639
632
629
626
623
618
613
605
599
595
599
609
624
639
650
662
664
661
654
647
640
633
629
625
619
613
608
600
595
594
602
618
635
653
668
674
676
670
664
656
649
642
638
637
634
628
622
616
608
606
612
621
636
651
661
668
672
667
660
653
647
639
633
627
622
617
610
605
597
598
606
620
635
651
663
672
674
671
667
659
651
645
638
632
625
620
613
606
600
599
609
622
636
654
666
675
677
672
665
658
651
643
637
631
626
619
612
606
600
597
606
619
634
647
656
664
664
659
652
645
638
631
627
623
619
614
607
600
595
592
598
611
625
641
652
660
661
658
652
646
637
631
627
626
623
616
609
603
597
594
602
617
632
647
654
660
660
656
648
641
634
627
623
621
620
615
608
602
595
591
596
607
619
631
642
647
646
640
634
627
619
613
610
606
601
596
590
584
577
572
573
578
592
606
617
625
625
619
613
606
600
596
595
596
595
590
582
578
571
568
574
583
598
610
620
623
621
614
609
601
596
591
589
587
586
584
577
572
566
559
561
569
578
587
592
595
593
587
582
576
569
565
565
565
567
565
559
553
549
544
542
548
557
565
572
575
572
567
561
555
551
548
550
552
554
550
544
540
534
529
531
540
552
561
566
568
566
562
555
549
546
548
554
559
565
569
564
558
551
545
543
547
555
563
566
567
562
556
551
545
542
544
551
559
565
569
567
563
556
550
546
547
554
561
566
566
561
555
551
546
541
544
550
557
562
564
560
554
550
543
540
544
554
562
570
575
573
567
562
556
556
561
569
577
584
589
585
580
573
567
563
563
569
575
580
579
574
568
563
557
554
557
563
569
574
575
569
563
557
551
549
555
561
572
577
581
573
570
564
558
553
554
559
564
567
566
562
555
550
545
542
547
553
563
567
570
564
559
553
549
546
547
552
557
560
560
557
550
545
539
537
541
548
555
561
562
558
553
546
541
538
535
538
542
545
544
539
536
529
524
525
532
540
546
552
555
552
547
542
536
531
530
531
531
532
528
523
519
513
510
515
526
540
552
558
557
555
549
542
537
533
530
535
540
544
544
539
535
529
525
528
538
550
559
565
566
563
556
552
546
542
543
547
549
550
549
548
547
544
540
535
535
547
567
579
585
580
574
567
561
558
560
564
571
574
572
567
562
557
551
552
560
570
579
585
586
580
573
568
563
562
564
571
577
580
578
571
565
559
554
552
556
562
570
576
577
572
566
561
555
553
554
561
569
578
581
582
575
571
564
559
554
551
552
558
568
576
578
574
568
563
565
575
590
598
599
593
587
582
576
577
577
578
581
574
567
560
556
551
547
541
537
539
539
539
535
529
525
519
518
520
526
532
538
543
544
543
538
531
527
523
521
523
523
524
520
515
511
505
505
515
527
539
552
561
564
560
555
550
543
539
541
543
547
550
548
542
539
531
530
532
541
552
560
566
565
559
555
550
544
542
548
557
566
573
573
565
562
555
551
548
554
559
565
566
563
558
552
547
545
554
567
578
587
588
583
578
571
567
560
555
549
545
538
534
529
524
520
515
508
505
503
502
504
498
494
490
485
482
480
486
493
500
504
509
510
506
500
495
492
491
492
498
503
505
503
500
493
490
489
494
504
517
525
532
535
532
527
523
519
514
513
515
516
514
510
505
500
494
496
502
513
525
536
543
544
540
533
530
523
520
521
525
529
530
527
523
517
513
508
512
523
534
542
545
547
541
535
530
525
522
521
523
527
526
523
518
513
509
505
506
516
528
537
545
543
541
536
530
526
520
519
524
528
528
525
520
515
511
508
513
524
535
539
540
536
531
525
522
517
517
519
523
522
519
514
508
503
500
502
513
519
527
532
537
538
532
527
522
518
518
523
532
549
568
583
582
578
572
574
587
601
611
616
619
617
616
613
604
598
592
590
591
593
595
592
585
580
574
572
577
587
598
607
611
611
602
596
591
585
581
582
583
582
583
579
572
567
561
558
564
574
583
588
592
590
586
580
573
567
563
565
570
574
574
570
566
560
553
550
555
565
576
583
591
593
589
584
578
571
565
560
557
556
557
556
550
546
541
546
576
617
647
654
648
640
645
642
641
668
777
972
1174
1329
1432
1454
1456
1532
1616
1627
1607
1604
1599
1577
1582
1590
1571
1566
1606
1665
1703
1694
1678
1666
1642
1618
1594
1579
1571
1557
1535
1514
1492
1471
1450
1430
1409
1399
1405
1404
1385
1366
1346
1328
1315
1316
1343
1380
1390
1370
1372
1378
1394
1429
1478
1488
1474
1464
1452
1448
1436
1467
1493
1480
1459
1440
1457
1504
1540
1532
1510
1490
1475
1501
1542
1545
1583
1610
1594
1613
1700
1804
1829
1871
1968
2023
2018
2086
2113
2084
2088
2116
2156
2202
2235
2222
2199
2230
2258
2239
2315
2454
2562
2626
2679
2723
2757
2804
2864
2919
2970
3031
3095
3222
3372
3474
3528
3542
3510
3457
3430
3500
3669
3865
3867
3868
3867
3869
3868
3868
3867
3868
3870
3867
3868
3866
3867
3867
3866
3869
3867
3869
3869
3869
3866
3868
3870
3871
3869
3867
3868
3868
3869
3868
3870
3869
3869
3869
3867
3870
3866
3866
3868
3868
3869
3868
3868
3868
3869
3871
3868
3869
3868
3870
3867
3869
3869
3869
3868
3865
3866
3869
3867
3869
3868
3867
3868
3867
3865
3866
3869
3868
3869
3869
3868
3867
3868
3868
3865
3864
3866
3870
3870
3870
3866
3869
3868
3868
3869
3868
3870
3869
3870
3869
3867
3869
3869
3865
3864
3866
3863
3866
3866
3865
3866
3868
3870
3872
3869
3871
3871
3869
3868
3868
3869
3866
3865
3866
3866
3864
3865
3863
3864
3865
3866
3865
3868
3869
3869
3870
3867
3870
3870
3869
3871
3869
3868
3867
3863
3866
3864
3863
3865
3866
3865
3867
3865
3868
3867
3865
3866
3868
3867
3865
3865
3863
3866
3864
3864
3864
3865
3864
3864
3865
3866
3865
3866
3866
3865
3865
3864
3865
3866
3864
3866
3865
3865
3864
3864
3864
3864
3864
3863
3864
3865
3864
3865
3864
3866
3869
3869
3864
3865
3864
3865
3866
3864
3866
3865
3865
3864
3864
3866
3863
3864
3865
3867
3866
3867
3865
3866
3865
3865
3865
3864
3867
3865
3865
3866
3864
3865
3866
3865
3865
3865
3865
3865
3865
3869
3870
3868
3865
3866
3865
3864
3865
3863
3864
3863
3865
3864
3866
3864
3865
3867
3868
3865
3864
3865
3865
3866
3866
3866
3866
3865
3864
3865
3865
3867
3865
3863
3865
3867
3866
3865
3867
3867
3864
3865
3866
3865
3864
3866
3865
3866
3867
3866
3864
3865
3867
3864
3864
3865
3864
3866
3866
3865
3865
3865
3865
3865
3865
3866
3866
3865
3866
3865
3864
3865
3866
3865
3864
3865
3866
3866
3865
3864
3866
3866
3865
3866
3865
3865
3866
3864
3864
3867
3865
3865
3868
3865
3865
3865
3866
3867
3866
3866
3865
3865
3866
3864
3865
3866
3865
3864
3867
3866
3864
3866
3865
3865
3866
3865
3866
3866
3866
3871
3867
3866
3865
3866
3866
3865
3865
3864
3865
3866
3865
3866
3867
3865
3865
3864
3865
3865
3864
3866
3866
3865
3865
3865
3867
3866
3866
3865
3865
3864
3865
3865
3863
3866
3865
3866
3865
3866
3863
3865
3865
3864
3866
3865
3866
3865
3866
3866
3865
3867
3866
3867
3864
3864
3865
3865
3865
3866
3865
3865
3867
3866
3864
3867
3865
3866
3867
3866
3865
3864
3866
3867
3866
3866
3866
3865
3865
3866
3866
3867
3867
3865
3864
3864
3865
3864
3865
3864
3865
3865
3865
3865
3864
3866
3866
3865
3865
3864
3866
3866
3866
3866
3865
3867
3866
3866
3866
3866
3866
3865
3865
3867
3866
3865
3866
3865
3864
3864
3866
3866
3866
3864
3865
3865
3866
3866
3865
3866
3866
3865
3867
3864
3863
3864
3865
3864
3866
3866
3865
3865
3864
3865
3865
3866
3867
3867
3867
3865
3863
3864
3865
3866
3865
3866
3865
3865
3866
3866
3870
3866
3866
3865
3867
3865
3866
3867
3865
3864
3868
3866
3864
3866
3864
3864
3865
3865
3865
3864
3867
3865
3865
3864
3867
3866
3866
3864
3865
3866
3865
3866
3867
3865
3864
3865
3866
3865
3864
3866
3865
3865
3865
3864
3866
3866
3866
3868
3865
3867
3865
3865
3866
3865
3864
3864
3865
3866
3865
3866
3865
3867
3865
3866
3866
3865
3866
3867
3866
3866
3864
3866
3864
3865
3864
3865
3865
3866
3865
3865
3866
3864
3867
3865
3866
3866
3867
3867
3867
3866
3866
3866
3865
3864
3865
3865
3864
3865
3865
3866
3864
3864
3866
3866
3865
3865
3866
3865
3867
3865
3865
3867
3865
3865
3865
3865
3865
3864
3867
3865
3866
3864
3865
3865
3866
3870
3869
3868
3865
3865
3866
3864
3865
3865
3866
3866
3864
3865
3865
3866
3865
3866
3865
3865
3866
3865
3866
3865
3864
3866
3866
3865
3865
3865
3866
3864
3867
3864
3865
3867
3866
3865
3864
3867
3867
3865
3864
3869
3865
3865
3866
3866
3866
3865
3866
3865
3865
3865
3865
3865
3864
3867
3866
3868
3867
3869
3866
3867
3864
3864
3866
3865
3867
3864
3864
3866
3865
3865
3867
3870
3869
3870
3864
3867
3866
3865
3867
3865
3866
3866
3865
3866
3864
3865
3864
3864
3865
3865
3865
3866
3865
3865
3865
3866
3866
3864
3869
3867
3865
3865
3866
3867
3865
3865
3864
3865
3866
3865
3866
3865
3865
3865
3859
3866
3866
3869
3859
3802
3745
3721
3725
3721
3726
3745
3782
3807
3811
3796
3795
3781
3781
3771
3730
3678
3641
3614
3562
3507
3454
3402
3357
3338
3342
3361
3383
3406
3425
3440
3448
3445
3430
3399
3347
3295
3245
3205
3192
3152
3120
3112
3110
3079
3047
3022
2985
2963
2922
2890
2846
2814
2834
2870
2877
2855
2815
2808
2801
2793
2761
2721
2679
2640
2629
2659
2715
2752
2736
2706
2709
2677
2683
2720
2717
2677
2636
2597
2567
2562
2575
2546
2564
2644
2736
2776
2765
2722
2694
2709
2736
2728
2687
2644
2606
2567
2538
2526
2515
2493
2458
2424
2386
2351
2321
2316
2319
2326
2322
2301
2286
2256
2240
2248
2261
2250
2220
2213
2241
2263
2251
2225
2224
2254
2293
2326
2362
2398
2407
2421
2434
2427
2400
2368
2341
2309
2276
2242
2212
2204
2258
2323
2366
2349
2387
2400
2364
2330
2296
2281
2302
2326
2345
2350
2334
2298
2265
2237
2213
2184
2151
2120
2097
2082
2070
2039
2023
1997
1996
2056
2122
2130
2122
2137
2112
2105
2126
2109
2097
2068
2044
2029
2003
1971
1951
1949
1967
1996
2030
2071
2099
2101
2087
2058
2031
2003
1983
1975
1964
1940
1932
1909
1888
1887
1907
1887
1862
1854
1868
1898
1930
1941
1934
1923
1900
1893
1888
1878
1852
1825
1799
1772
1752
1733
1720
1731
1765
1795
1820
1850
1875
1914
1934
1933
1910
1891
1881
1872
1853
1836
1809
1794
1780
1757
1734
1747
1765
1768
1745
1733
1744
1776
1831
1862
1853
1858
1877
1878
1867
1839
1811
1786
1765
1750
1728
1726
1744
1782
1821
1837
1848
1853
1856
1884
1891
1873
1855
1872
1873
1848
1824
1811
1815
1797
1793
1825
1873
1910
1937
1950
1945
1934
1915
1888
1864
1838
1815
1792
1773
1748
1726
1709
1695
1679
1676
1686
1704
1718
1727
1740
1749
1756
1755
1740
1715
1690
1693
1729
1738
1728
1716
1701
1690
1683
1725
1775
1814
1847
1868
1881
1901
1911
1894
1867
1840
1813
1795
1787
1770
1749
1726
1701
1677
1656
1644
1642
1655
1676
1694
1718
1727
1745
1754
1749
1798
1896
1964
1956
1927
1906
1913
1934
1959
1972
1996
2033
2093
2159
2197
2203
2198
2208
2221
2234
2216
2225
2213
2188
2157
2123
2090
2062
2036
2023
2023
2038
2060
2087
2103
2107
2104
2095
2088
2071
2040
2010
1994
2001
1992
1988
2021
2053
2040
2030
2068
2125
2171
2194
2201
2205
2214
2227
2233
2217
2196
2208
2218
2217
2192
2164
2133
2111
2098
2084
2080
2096
2132
2168
2186
2188
2159
2127
2094
2063
2038
2054
2069
2050
2025
2073
2138
2145
2119
2119
2130
2143
2171
2189
2194
2196
2175
2141
2119
2104
2074
2052
2023
1998
1977
1953
1924
1897
1870
1843
1828
1831
1853
1896
1892
1867
1843
1817
1789
1762
1757
1764
1756
1739
1740
1747
1758
1767
1751
1728
1719
1730
1741
1760
1783
1797
1788
1766
1742
1717
1699
1694
1705
1728
1764
1849
1936
1936
1938
2005
2089
2150
2192
2224
2260
2289
2306
2307
2294
2273
2239
2206
2175
2143
2112
2104
2129
2143
2116
2098
2124
2164
2198
2232
2255
2257
2256
2232
2201
2180
2159
2131
2118
2105
2078
2051
2021
1990
1961
1938
1922
1911
1907
1905
1906
1918
1912
1891
1866
1839
1815
1809
1805
1811
1814
1801
1795
1776
1756
1755
1741
1722
1706
1732
1766
1774
1783
1782
1765
1739
1713
1705
1705
1708
1704
1698
1685
1661
1638
1614
1597
1590
1588
1593
1595
1592
1573
1551
1529
1523
1548
1585
1594
1602
1633
1645
1651
1655
1636
1627
1641
1665
1685
1698
1716
1731
1716
1696
1700
1713
1701
1690
1689
1677
1659
1650
1637
1616
1600
1584
1561
1554
1568
1590
1595
1590
1574
1576
1602
1601
1586
1565
1548
1571
1601
1605
1583
1560
1539
1517
1503
1502
1509
1523
1527
1522
1505
1487
1493
1504
1534
1541
1522
1500
1492
1490
1478
1460
1439
1417
1399
1383
1374
1382
1410
1438
1446
1437
1421
1434
1448
1466
1482
1493
1506
1528
1555
1569
1557
1551
1576
1610
1629
1636
1639
1636
1620
1606
1584
1561
1545
1540
1549
1572
1600
1604
1585
1572
1569
1559
1546
1547
1554
1563
1561
1558
1545
1526
1504
1486
1485
1496
1512
1520
1526
1528
1519
1503
1481
1475
1474
1470
1464
1445
1427
1410
1392
1386
1400
1403
1387
1387
1430
1465
1491
1483
1461
1447
1446
1447
1428
1406
1387
1376
1383
1417
1435
1443
1434
1457
1510
1573
1601
1602
1578
1559
1557
1567
1583
1596
1617
1637
1665
1683
1699
1713
1720
1721
1707
1683
1662
1650
1652
1654
1644
1628
1607
1583
1561
1543
1546
1563
1595
1636
1653
1641
1616
1599
1579
1556
1542
1540
1546
1549
1554
1552
1536
1513
1491
1471
1457
1455
1460
1468
1478
1476
1459
1438
1419
1398
1396
1410
1425
1435
1433
1420
1402
1383
1367
1358
1337
1321
1303
1286
1268
1256
1239
1222
1214
1205
1189
1175
1161
1168
1197
1236
1249
1239
1228
1214
1197
1201
1238
1271
1290
1286
1269
1252
1236
1223
1237
1272
1324
1371
1397
1408
1418
1431
1449
1460
1479
1509
1547
1581
1609
1640
1651
1640
1616
1592
1571
1559
1556
1560
1555
1543
1523
1501
1480
1462
1451
1438
1427
1430
1433
1446
1448
1434
1415
1395
1387
1394
1410
1432
1469
1506
1511
1498
1499
1491
1488
1477
1461
1458
1469
1482
1490
1487
1469
1452
1429
1409
1394
1375
1357
1351
1355
1336
1318
1299
1290
1282
1272
1264
1253
1238
1224
1214
1198
1187
1189
1197
1219
1251
1273
1280
1265
1247
1234
1233
1223
1208
1223
1253
1278
1306
1346
1358
1353
1341
1347
1357
1376
1393
1399
1386
1367
1348
1328
1313
1312
1326
1350
1368
1381
1385
1373
1356
1335
1322
1322
1326
1333
1334
1340
1356
1380
1401
1394
1379
1371
1375
1385
1400
1441
1485
1513
1519
1512
1490
1469
1455
1449
1445
1436
1423
1403
1383
1364
1348
1344
1354
1373
1393
1413
1422
1403
1384
1364
1348
1345
1353
1363
1371
1376
1373
1357
1338
1319
1303
1287
1271
1267
1273
1262
1247
1248
1247
1236
1222
1205
1209
1223
1242
1249
1245
1254
1262
1254
1239
1223
1221
1234
1246
1258
1280
1281
1265
1281
1301
1304
1298
1283
1296
1345
1342
1327
1307
1289
1281
1286
1299
1317
1326
1338
1359
1379
1372
1351
1345
1362
1407
1457
1481
1477
1458
1453
1441
1431
1426
1436
1453
1477
1500
1514
1519
1512
1494
1472
1452
1447
1453
1465
1474
1479
1473
1454
1445
1428
1407
1406
1442
1453
1462
1471
1474
1464
1450
1434
1423
1430
1444
1458
1463
1461
1458
1454
1454
1441
1421
1417
1426
1455
1504
1529
1520
1501
1479
1457
1439
1437
1448
1467
1487
1500
1496
1476
1453
1441
1433
1414
1398
1408
1435
1459
1462
1444
1424
1414
1416
1417
1412
1395
1377
1359
1360
1361
1349
1347
1341
1322
1304
1287
1276
1270
1251
1239
1232
1234
1240
1230
1231
1266
1296
1309
1309
1297
1281
1264
1246
1234
1230
1216
1201
1186
1184
1169
1175
1190
1201
1202
1195
1183
1189
1189
1196
1192
1179
1162
1148
1140
1130
1124
1118
1115
1107
1094
1082
1080
1087
1109
1128
1147
1164
1169
1171
1164
1148
1134
1129
1142
1150
1151
1151
1135
1120
1107
1091
1081
1067
1074
1106
1150
1199
1225
1232
1220
1203
1188
1171
1160
1157
1184
1229
1265
1276
1269
1254
1237
1225
1247
1279
1305
1313
1306
1288
1283
1278
1260
1247
1258
1271
1256
1244
1254
1274
1273
1259
1242
1231
1233
1242
1258
1265
1264
1254
1236
1219
1205
1190
1178
1170
1161
1166
1173
1162
1146
1132
1126
1129
1147
1173
1209
1233
1246
1243
1227
1212
1209
1198
1183
1187
1196
1183
1167
1151
1136
1123
1108
1095
1090
1100
1131
1150
1163
1170
1166
1157
1147
1130
1117
1105
1092
1078
1066
1062
1075
1088
1082
1100
1116
1148
1206
1237
1231
1213
1211
1230
1234
1218
1211
1199
1182
1171
1168
1168
1163
1146
1132
1127
1137
1156
1178
1208
1234
1238
1243
1265
1263
1246
1242
1251
1261
1256
1242
1227
1211
1194
1178
1178
1202
1241
1280
1308
1323
1320
1301
1283
1268
1257
1250
1244
1238
1221
1203
1187
1172
1170
1186
1213
1232
1259
1282
1296
1299
1285
1267
1250
1231
1214
1199
1187
1181
1170
1156
1141
1127
1115
1116
1125
1151
1179
1207
1243
1276
1286
1278
1260
1242
1224
1212
1212
1211
1196
1180
1165
1160
1160
1151
1148
1176
1230
1274
1282
1293
1309
1319
1322
1308
1298
1310
1326
1317
1300
1281
1264
1259
1259
1247
1248
1256
1261
1265
1287
1327
1369
1374
1357
1336
1318
1310
1316
1328
1328
1318
1301
1284
1292
1312
1311
1307
1326
1369
1409
1422
1415
1394
1375
1354
1338
1328
1324
1323
1319
1311
1295
1277
1259
1255
1265
1302
1343
1371
1386
1392
1389
1376
1356
1339
1323
1304
1287
1272
1273
1273
1260
1241
1228
1225
1240
1269
1302
1321
1331
1338
1352
1353
1333
1315
1297
1286
1271
1270
1284
1300
1289
1275
1273
1264
1262
1281
1314
1340
1351
1365
1381
1384
1376
1360
1348
1340
1326
1309
1291
1271
1255
1239
1223
1207
1219
1270
1310
1331
1346
1352
1351
1339
1323
1306
1297
1289
1276
1261
1250
1234
1217
1201
1193
1197
1215
1240
1273
1316
1351
1372
1374
1359
1349
1346
1331
1313
1299
1300
1311
1309
1295
1277
1260
1260
1280
1299
1327
1363
1367
1348
1363
1399
1435
1429
1417
1430
1449
1455
1451
1447
1427
1407
1388
1371
1374
1387
1411
1433
1447
1458
1460
1461
1459
1466
1469
1448
1436
1421
1411
1419
1427
1410
1390
1370
1370
1374
1377
1380
1382
1405
1430
1431
1411
1392
1373
1352
1335
1318
1301
1284
1265
1248
1242
1255
1280
1315
1347
1376
1398
1416
1423
1421
1408
1389
1369
1353
1334
1317
1302
1293
1281
1263
1247
1247
1264
1294
1330
1366
1392
1407
1411
1404
1392
1398
1406
1391
1373
1375
1389
1399
1385
1366
1347
1329
1313
1321
1343
1380
1415
1446
1458
1457
1445
1429
1410
1389
1370
1356
1340
1323
1312
1338
1365
1370
1353
1335
1327
1334
1365
1403
1418
1408
1389
1369
1353
1339
1337
1342
1331
1312
1296
1277
1266
1261
1255
1262
1280
1299
1316
1330
1340
1335
1323
1304
1286
1272
1268
1257
1239
1223
1208
1201
1219
1253
1295
1328
1336
1339
1355
1380
1383
1368
1352
1336
1317
1299
1284
1270
1255
1238
1219
1210
1209
1218
1242
1276
1307
1337
1361
1378
1384
1375
1362
1344
1325
1312
1307
1304
1296
1282
1265
1268
1268
1269
1296
1334
1373
1432
1497
1539
1534
1516
1531
1575
1605
1595
1579
1565
1551
1529
1514
1492
1480
1509
1559
1592
1605
1588
1567
1544
1520
1515
1540
1528
1525
1530
1512
1489
1469
1450
1428
1409
1393
1376
1377
1391
1397
1415
1437
1457
1488
1515
1505
1488
1483
1494
1499
1512
1509
1490
1467
1447
1433
1434
1446
1470
1493
1516
1532
1542
1540
1526
1505
1485
1464
1444
1425
1412
1396
1377
1359
1342
1338
1347
1368
1396
1428
1453
1472
1482
1479
1470
1452
1431
1412
1394
1382
1372
1357
1339
1321
1307
1305
1314
1336
1367
1401
1428
1447
1441
1427
1422
1427
1433
1421
1412
1395
1390
1398
1417
1440
1429
1436
1448
1435
1445
1463
1473
1467
1456
1439
1418
1397
1379
1366
1381
1397
1381
1389
1402
1401
1384
1364
1357
1372
1430
1514
1586
1623
1615
1615
1630
1628
1607
1589
1579
1576
1576
1570
1559
1536
1513
1495
1491
1498
1517
1537
1556
1567
1572
1566
1549
1529
1507
1487
1470
1459
1449
1436
1416
1396
1379
1372
1380
1397
1422
1447
1468
1484
1490
1485
1469
1450
1428
1411
1394
1381
1370
1357
1340
1321
1304
1304
1326
1352
1372
1391
1404
1417
1428
1423
1402
1383
1364
1344
1331
1328
1319
1300
1284
1266
1248
1232
1256
1322
1400
1475
1518
1508
1523
1522
1496
1477
1457
1438
1420
1402
1387
1401
1423
1430
1418
1398
1407
1427
1473
1515
1524
1507
1497
1478
1459
1440
1426
1421
1422
1427
1430
1419
1398
1389
1384
1370
1353
1337
1350
1377
1398
1411
1417
1408
1393
1375
1358
1339
1329
1321
1315
1302
1285
1267
1252
1247
1253
1271
1297
1325
1346
1359
1367
1359
1345
1326
1307
1293
1284
1278
1271
1261
1249
1231
1216
1207
1214
1235
1258
1275
1287
1294
1289
1292
1294
1277
1259
1241
1224
1208
1192
1177
1160
1147
1150
1171
1185
1212
1291
1344
1370
1357
1341
1325
1315
1304
1308
1353
1463
1517
1542
1532
1525
1516
1508
1489
1484
1486
1482
1475
1479
1480
1476
1459
1439
1420
1399
1384
1375
1371
1367
1356
1340
1325
1306
1300
1309
1322
1337
1358
1375
1385
1387
1378
1360
1343
1325
1309
1301
1297
1292
1282
1266
1251
1232
1222
1230
1250
1276
1301
1321
1338
1343
1334
1319
1300
1283
1268
1260
1258
1254
1246
1230
1214
1198
1190
1199
1217
1239
1264
1283
1297
1315
1326
1327
1329
1321
1301
1290
1314
1349
1354
1346
1333
1316
1300
1282
1273
1280
1298
1293
1280
1263
1253
1315
1399
1410
1453
1505
1556
1593
1620
1632
1633
1618
1595
1575
1573
1577
1578
1566
1560
1573
1580
1562
1544
1532
1532
1531
1538
1539
1532
1516
1493
1472
1456
1450
1461
1476
1493
1505
1507
1495
1476
1457
1437
1417
1397
1380
1373
1363
1348
1332
1312
1296
1291
1296
1316
1339
1361
1378
1389
1391
1379
1361
1341
1325
1309
1297
1290
1287
1285
1281
1266
1281
1343
1396
1417
1422
1405
1385
1368
1353
1337
1322
1308
1296
1281
1284
1293
1302
1293
1284
1275
1258
1242
1235
1244
1260
1279
1292
1301
1299
1289
1272
1253
1237
1223
1220
1217
1216
1206
1192
1175
1160
1152
1143
1154
1186
1214
1232
1250
1272
1312
1352
1363
1347
1327
1326
1348
1402
1479
1518
1509
1488
1468
1448
1437
1444
1478
1504
1502
1484
1462
1443
1424
1404
1394
1398
1406
1411
1403
1388
1371
1366
1351
1358
1376
1402
1415
1429
1438
1421
1400
1381
1363
1357
1358
1364
1358
1347
1337
1327
1315
1299
1281
1279
1287
1296
1309
1321
1331
1333
1323
1305
1285
1270
1258
1257
1260
1261
1254
1240
1222
1208
1200
1207
1225
1247
1270
1284
1294
1291
1280
1262
1246
1228
1219
1220
1223
1221
1217
1203
1186
1172
1172
1193
1233
1264
1280
1319
1336
1327
1316
1308
1299
1297
1304
1314
1326
1336
1338
1330
1311
1293
1282
1279
1284
1284
1278
1290
1304
1301
1289
1268
1252
1236
1228
1226
1227
1225
1224
1208
1193
1179
1179
1208
1233
1245
1240
1225
1214
1206
1195
1181
1182
1189
1175
1159
1154
1157
1148
1135
1129
1115
1103
1090
1103
1132
1161
1176
1181
1176
1165
1149
1133
1119
1111
1111
1115
1114
1111
1101
1087
1095
1131
1185
1235
1282
1316
1320
1303
1296
1295
1290
1286
1289
1303
1316
1338
1352
1362
1358
1342
1321
1304
1297
1302
1315
1328
1337
1339
1331
1316
1295
1278
1262
1257
1261
1261
1251
1237
1220
1206
1190
1177
1177
1199
1242
1282
1298
1292
1277
1261
1245
1231
1215
1202
1203
1218
1234
1244
1238
1223
1205
1192
1191
1201
1207
1208
1211
1219
1234
1231
1216
1198
1183
1173
1172
1156
1140
1125
1110
1096
1081
1066
1061
1075
1096
1120
1137
1149
1146
1134
1119
1105
1097
1102
1108
1104
1099
1090
1076
1063
1048
1046
1061
1085
1112
1135
1156
1170
1171
1160
1143
1127
1115
1109
1107
1110
1113
1117
1101
1090
1083
1074
1063
1081
1115
1162
1188
1184
1171
1155
1141
1124
1114
1115
1124
1133
1136
1134
1123
1107
1093
1083
1091
1107
1128
1147
1162
1170
1167
1154
1138
1124
1110
1106
1106
1104
1099
1088
1074
1061
1049
1044
1033
1033
1059
1093
1108
1110
1108
1120
1133
1124
1111
1124
1158
1181
1190
1192
1178
1163
1148
1137
1141
1157
1178
1195
1205
1210
1204
1193
1176
1159
1144
1130
1121
1120
1135
1164
1168
1162
1156
1178
1221
1274
1321
1332
1320
1310
1330
1350
1338
1326
1308
1301
1300
1306
1304
1297
1282
1263
1245
1235
1242
1260
1287
1317
1352
1363
1363
1360
1352
1332
1334
1352
1373
1394
1404
1408
1394
1374
1355
1339
1340
1349
1360
1381
1394
1398
1389
1374
1357
1338
1319
1310
1306
1304
1294
1282
1263
1244
1237
1243
1260
1280
1303
1329
1347
1356
1355
1341
1322
1305
1291
1290
1292
1289
1285
1270
1253
1236
1221
1222
1236
1251
1268
1281
1288
1309
1331
1326
1309
1292
1281
1275
1272
1264
1253
1240
1221
1205
1198
1205
1224
1248
1276
1299
1314
1317
1315
1302
1303
1311
1302
1285
1271
1275
1298
1326
1346
1326
1307
1301
1337
1378
1401
1400
1395
1390
1380
1363
1345
1324
1307
1296
1290
1283
1269
1252
1235
1224
1225
1234
1253
1277
1300
1322
1335
1346
1342
1326
1308
1291
1273
1264
1265
1270
1257
1240
1225
1221
1223
1235
1249
1261
1286
1319
1344
1353
1346
1331
1311
1292
1278
1266
1263
1255
1240
1224
1208
1195
1195
1205
1228
1257
1298
1338
1351
1332
1315
1307
1303
1288
1268
1258
1261
1260
1260
1254
1236
1225
1220
1212
1248
1333
1416
1468
1469
1449
1435
1416
1401
1400
1402
1409
1419
1419
1422
1426
1419
1401
1381
1378
1390
1423
1456
1480
1497
1494
1473
1464
1466
1491
1507
1489
1469
1457
1439
1420
1399
1380
1363
1363
1378
1398
1423
1442
1455
1464
1473
1471
1458
1437
1426
1427
1423
1402
1381
1363
1344
1326
1324
1351
1373
1378
1372
1364
1384
1412
1413
1395
1376
1359
1348
1343
1341
1338
1329
1315
1295
1278
1266
1271
1288
1308
1328
1343
1351
1353
1351
1349
1336
1317
1301
1291
1295
1294
1281
1262
1246
1230
1213
1197
1197
1239
1279
1302
1319
1326
1334
1358
1365
1353
1362
1353
1340
1322
1308
1290
1288
1290
1276
1260
1242
1240
1275
1327
1359
1361
1340
1322
1303
1285
1274
1279
1280
1274
1269
1269
1253
1238
1236
1241
1251
1274
1298
1325
1345
1353
1347
1331
1314
1294
1280
1271
1268
1263
1251
1235
1221
1204
1200
1208
1227
1255
1283
1304
1316
1320
1317
1303
1286
1268
1258
1265
1257
1284
1286
1268
1251
1234
1218
1204
1210
1227
1239
1227
1222
1254
1280
1282
1269
1250
1244
1248
1254
1252
1243
1228
1211
1197
1186
1193
1213
1235
1259
1282
1297
1303
1297
1282
1265
1247
1230
1219
1213
1201
1190
1172
1158
1146
1145
1160
1182
1210
1239
1261
1275
1281
1276
1260
1243
1225
1218
1212
1193
1179
1164
1156
1160
1153
1146
1140
1124
1121
1155
1199
1231
1228
1210
1195
1190
1194
1186
1174
1157
1145
1142
1131
1116
1103
1089
1092
1112
1140
1168
1185
1191
1189
1182
1170
1168
1159
1143
1133
1134
1139
1136
1122
1106
1093
1088
1096
1117
1144
1168
1192
1206
1212
1207
1194
1178
1163
1147
1142
1138
1132
1121
1108
1091
1081
1079
1092
1114
1138
1163
1185
1197
1202
1196
1181
1168
1150
1138
1130
1129
1122
1111
1098
1084
1070
1067
1080
1100
1125
1142
1151
1162
1162
1152
1136
1121
1107
1095
1085
1083
1078
1068
1057
1044
1041
1052
1079
1101
1131
1177
1196
1200
1209
1206
1193
1193
1206
1211
1202
1192
1176
1163
1147
1133
1118
1107
1123
1154
1181
1199
1201
1191
1179
1166
1150
1132
1120
1113
1108
1110
1110
1102
1089
1075
1061
1056
1066
1088
1114
1139
1160
1171
1175
1168
1152
1137
1121
1110
1111
1112
1112
1107
1096
1081
1068
1057
1061
1080
1103
1132
1152
1163
1167
1157
1141
1127
1111
1105
1108
1114
1119
1115
1102
1088
1074
1065
1071
1088
1108
1129
1143
1151
1146
1134
1119
1105
1091
1089
1096
1105
1114
1120
1115
1102
1087
1073
1065
1070
1081
1092
1095
1095
1083
1069
1054
1046
1049
1067
1098
1132
1167
1198
1222
1235
1241
1239
1226
1209
1192
1176
1160
1143
1132
1129
1138
1157
1190
1236
1290
1345
1400
1451
1491
1520
1544
1556
1558
1547
1532
1514
1497
1488
1488
1498
1516
1545
1585
1638
1697
1762
1817
1872
1917
1948
1974
1989
1993
1979
1962
1938
1918
1901
1891
1888
1896
1909
1935
1969
2012
2056
2093
2124
2142
2151
2148
2134
2104
2073
2040
2009
1981
1953
1924
1895
1867
1840
1814
1795
1792
1798
1801
1792
1776
1752
1727
1709
1715
1735
1755
1775
1796
1809
1818
1818
1813
1804
1785
1760
1736
1712
1697
1687
1688
1700
1717
1740
1771
1812
1855
1899
1939
1970
1989
1997
1994
1984
1965
1938
1910
1886
1861
1836
1829
1838
1868
1909
1959
2011
2063
2108
2149
2186
2211
2228
2232
2233
2222
2204
2184
2164
2152
2146
2154
2169
2194
2222
2263
2313
2361
2409
2452
2485
2508
2521
2529
2529
2519
2504
2486
2469
2459
2453
2456
2469
2490
2519
2554
2597
2640
2682
2720
2751
2773
2784
2789
2787
2773
2758
2737
2718
2705
2699
2703
2714
2735
2759
2795
2837
2879
2920
2956
2986
3007
3018
3018
3015
3002
2982
2961
2944
2928
2920
2923
2935
2950
2975
3007
3047
3086
3122
3155
3180
3192
3197
3196
3184
3164
3136
3112
3086
3070
3059
3058
3064
3080
3097
3123
3156
3187
3218
3252
3278
3294
3302
3303
3287
3260
3225
3191
3170
3162
3164
3177
3192
3212
3237
3272
3311
3350
3383
3416
3438
3451
3459
3456
3447
3430
3406
3382
3360
3343
3335
3335
3343
3357
3383
3413
3447
3484
3519
3548
3572
3585
3583
3576
3560
3539
3518
3498
3477
3457
3439
3432
3432
3440
3457
3482
3516
3552
3585
3613
3636
3647
3648
3643
3633
3608
3579
3545
3507
3480
3463
3456
3457
3468
3487
3512
3543
3574
3604
3630
3648
3656
3656
3647
3633
3611
3581
3548
3519
3495
3481
3472
3473
3484
3497
3522
3552
3586
3613
3633
3641
3642
3634
3631
3615
3591
3558
3528
3500
3481
3464
3457
3463
3473
3487
3515
3544
3575
3603
3628
3645
3653
3647
3641
3624
3597
3568
3538
3511
3488
3473
3469
3471
3480
3492
3510
3530
3552
3575
3601
3628
3648
3656
3650
3639
3615
3588
3554
3529
3507
3489
3482
3481
3491
3506
3530
3561
3594
3622
3645
3661
3668
3665
3656
3640
3615
3584
3553
3525
3504
3488
3485
3487
3495
3509
3532
3560
3592
3620
3642
3659
3663
3654
3641
3621
3600
3575
3544
3509
3482
3462
3455
3456
3461
3474
3498
3527
3559
3587
3607
3623
3626
3619
3607
3584
3551
3518
3482
3444
3412
3385
3369
3371
3385
3413
3452
3487
3520
3547
3570
3586
3587
3584
3572
3553
3523
3493
3459
3428
3406
3385
3379
3376
3385
3398
3421
3450
3479
3506
3523
3534
3535
3530
3518
3501
3473
3438
3404
3377
3351
3333
3324
3327
3332
3348
3372
3399
3428
3454
3473
3483
3482
3481
3467
3447
3419
3388
3356
3326
3304
3285
3279
3281
3288
3299
3322
3349
3377
3401
3417
3427
3426
3418
3408
3386
3358
3321
3289
3256
3232
3214
3208
3210
3217
3231
3254
3282
3309
3333
3351
3361
3359
3351
3340
3318
3288
3251
3217
3186
3158
3139
3130
3130
3136
3154
3182
3216
3248
3275
3291
3299
3295
3284
3267
3244
3213
3183
3151
3123
3100
3077
3061
3049
3038
3039
3055
3081
3115
3144
3165
3177
3178
3162
3144
3119
3093
3067
3037
3005
2976
2959
2952
2951
2959
2971
2997
3021
3050
3078
3096
3106
3107
3097
3085
3062
3035
3001
2968
2937
2914
2899
2892
2893
2903
2917
2941
2968
2996
3019
3036
3045
3043
3034
3020
2998
2966
2933
2901
2869
2845
2829
2823
2825
2832
2847
2871
2898
2925
2948
2966
2978
2978
2969
2956
2935
2903
2872
2839
2809
2786
2767
2762
2764
2769
2785
2807
2832
2862
2886
2903
2910
2908
2899
2884
2859
2828
2794
2760
2729
2705
2690
2684
2686
2693
2709
2732
2759
2785
2808
2824
2832
2831
2822
2807
2783
2754
2720
2688
2658
2630
2613
2602
2602
2601
2604
2616
2632
2653
2676
2698
2720
2728
2726
2716
2691
2663
2631
2596
2570
2545
2532
2526
2527
2536
2552
2578
2605
2632
2654
2671
2680
2678
2666
2655
2635
2607
2571
2535
2504
2482
2468
2464
2465
2472
2486
2510
2534
2562
2584
2601
2611
2608
2599
2584
2559
2528
2493
2460
2429
2407
2393
2387
2389
2396
2416
2441
2468
2495
2515
2530
2539
2536
2525
2512
2488
2457
2422
2387
2358
2335
2322
2319
2323
2330
2347
2369
2396
2421
2443
2460
2467
2463
2454
2439
2416
2387
2354
2322
2292
2268
2255
2248
2252
2261
2281
2307
2337
2364
2384
2400
2407
2407
2394
2378
2354
2323
2289
2255
2224
2202
2188
2182
2185
2192
2208
2234
2259
2287
2311
2326
2331
2331
2324
2310
2288
2256
2223
2191
2164
2141
2127
2123
2124
2131
2149
2172
2198
2222
2240
2254
2258
2254
2242
2223
2199
2168
2137
2106
2076
2057
2042
2039
2041
2048
2067
2094
2120
2145
2166
2181
2189
2184
2173
2157
2131
2099
2069
2037
2008
1985
1971
1968
1971
1980
1999
2025
2053
2080
2100
2116
2123
2122
2114
2102
2079
2052
2019
1988
1961
1937
1922
1916
1916
1924
1942
1966
1994
2023
2043
2058
2065
2062
2053
2035
2011
1981
1951
1925
1896
1874
1863
1860
1866
1875
1895
1918
1947
1971
1992
2004
2012
2007
1994
1976
1953
1924
1892
1869
1841
1817
1805
1800
1803
1811
1829
1854
1880
1905
1925
1940
1945
1940
1933
1916
1893
1863
1836
1809
1783
1760
1747
1744
1747
1756
1774
1795
1820
1843
1861
1874
1876
1872
1863
1848
1822
1797
1771
1744
1719
1695
1685
1684
1686
1697
1715
1741
1767
1792
1811
1822
1825
1822
1811
1794
1770
1746
1720
1695
1670
1647
1634
1631
1633
1640
1657
1681
1707
1729
1745
1759
1759
1756
1744
1727
1703
1680
1655
1631
1609
1586
1573
1571
1576
1589
1606
1632
1658
1683
1704
1717
1720
1714
1704
1689
1665
1641
1617
1593
1571
1549
1536
1529
1531
1540
1558
1579
1605
1629
1647
1660
1662
1658
1645
1626
1602
1580
1557
1535
1512
1492
1477
1471
1473
1481
1498
1521
1545
1571
1584
1593
1595
1587
1574
1556
1533
1511
1490
1470
1449
1428
1412
1404
1407
1415
1431
1456
1483
1504
1521
1535
1537
1530
1521
1506
1485
1464
1442
1423
1402
1382
1368
1365
1368
1376
1393
1414
1439
1461
1477
1490
1493
1491
1482
1467
1447
1425
1404
1386
1367
1348
1331
1324
1323
1329
1346
1368
1395
1416
1436
1446
1445
1439
1427
1410
1389
1369
1352
1333
1314
1297
1281
1272
1269
1280
1298
1321
1348
1374
1392
1407
1410
1406
1401
1382
1364
1344
1327
1307
1291
1273
1256
1251
1252
1260
1280
1304
1330
1354
1373
1383
1389
1383
1374
1356
1336
1317
1301
1284
1265
1249
1233
1227
1230
1240
1257
1275
1301
1324
1341
1355
1361
1356
1348
1335
1316
1298
1280
1262
1245
1228
1213
1200
1200
1204
1224
1247
1274
1300
1316
1329
1331
1325
1312
1296
1279
1260
1242
1225
1209
1192
1178
1172
1173
1182
1200
1227
1254
1275
1293
1305
1306
1299
1287
1269
1253
1237
1219
1204
1187
1172
1156
1146
1143
1149
1166
1189
1213
1237
1253
1261
1259
1252
1241
1227
1210
1193
1177
1163
1147
1131
1116
1111
1111
1120
1140
1165
1191
1211
1229
1236
1236
1229
1217
1202
1185
1169
1152
1138
1123
1108
1094
1086
1086
1094
1110
1134
1158
1182
1197
1207
1210
1202
1191
1177
1160
1144
1132
1121
1108
1093
1079
1067
1061
1067
1083
1103
1126
1145
1161
1165
1164
1155
1142
1127
1112
1097
1085
1073
1059
1045
1032
1020
1017
1024
1039
1060
1082
1102
1116
1124
1124
1115
1102
1089
1072
1057
1046
1034
1021
1008
995
983
978
982
998
1018
1045
1066
1082
1091
1090
1080
1067
1053
1039
1025
1012
1001
990
975
964
953
949
953
969
989
1011
1031
1046
1051
1050
1041
1027
1013
1002
989
983
976
967
954
943
930
923
929
941
961
981
1001
1016
1024
1024
1016
1004
991
980
965
957
949
938
925
915
904
898
903
916
938
959
979
993
1001
1000
991
977
966
952
943
936
930
923
912
898
888
880
879
890
907
927
943
957
963
959
948
935
923
913
905
904
900
893
883
873
860
856
862
878
900
919
935
946
949
947
936
926
913
902
893
892
888
885
877
866
855
848
850
864
883
902
921
932
938
933
924
912
900
889
882
878
875
870
858
848
838
831
832
847
865
885
901
913
919
916
904
893
881
870
862
858
854
848
839
828
819
809
812
822
841
861
880
893
897
893
883
873
860
852
845
842
841
837
828
816
807
802
806
820
839
857
872
883
890
886
875
867
855
847
839
836
832
825
817
806
797
790
795
812
833
856
874
887
892
888
877
867
857
848
846
844
844
837
830
820
809
802
808
823
843
861
874
884
889
886
874
863
852
843
839
836
833
829
819
809
800
792
795
808
826
843
860
870
874
868
858
849
838
828
821
819
818
814
805
794
785
777
783
797
816
833
846
856
859
854
846
835
824
816
812
812
812
808
799
790
781
771
770
780
795
814
827
838
842
839
830
820
809
804
805
810
812
814
808
797
788
778
775
784
800
814
828
836
837
830
821
811
801
797
798
801
805
806
800
790
782
772
769
778
791
807
818
826
827
819
810
799
789
786
786
792
799
801
797
787
778
770
773
785
801
817
828
834
833
827
816
806
798
792
791
796
799
801
797
788
780
769
768
776
790
806
817
822
821
814
804
793
785
780
784
788
792
789
783
774
764
756
758
768
785
800
813
819
820
813
801
791
784
780
777
780
784
785
779
768
758
751
754
764
779
793
803
806
806
796
787
776
768
766
770
777
780
780
776
765
757
749
747
757
774
791
801
809
811
803
794
785
775
769
771
777
779
779
772
763
753
746
746
758
772
787
800
808
810
806
796
785
777
771
771
774
775
771
764
755
746
738
744
757
777
795
808
814
815
807
798
789
778
775
773
773
775
773
764
756
748
740
745
759
778
795
811
820
823
817
806
795
788
783
785
786
789
787
779
770
760
752
754
765
783
798
809
814
816
811
799
790
782
776
775
775
776
771
764
754
745
738
740
749
763
779
791
799
797
790
781
772
764
758
759
762
763
763
754
745
736
729
731
743
755
770
779
785
785
779
770
760
751
747
751
757
761
763
759
749
741
733
735
747
762
776
786
793
792
785
775
766
755
753
754
757
759
755
752
743
734
725
725
735
749
762
773
780
776
770
760
751
743
742
746
750
755
757
751
742
735
725
727
736
751
767
777
785
783
774
766
757
749
747
752
757
758
757
748
740
732
723
723
734
746
758
768
773
769
762
752
742
735
734
738
743
748
749
743
733
727
717
720
730
745
758
769
774
772
762
754
745
738
737
742
749
752
754
747
740
730
723
725
738
753
765
775
777
774
763
756
745
740
740
744
752
757
758
751
741
733
726
727
736
751
766
775
780
775
769
759
749
742
744
748
757
762
764
755
748
738
732
733
743
757
773
784
789
785
777
766
758
753
751
757
762
767
768
759
749
741
733
735
745
763
778
789
796
794
786
776
767
761
761
767
773
776
774
766
758
747
742
748
761
775
790
800
801
798
789
780
771
763
761
762
767
769
769
759
750
743
738
745
758
775
792
804
809
806
798
789
779
772
772
778
781
784
783
776
768
759
748
751
762
777
790
795
796
790
781
773
762
755
753
755
759
763
761
754
745
735
730
733
744
759
772
782
784
780
769
760
751
745
744
751
758
764
766
758
749
740
734
737
748
763
778
787
791
789
778
769
760
754
754
757
764
765
764
758
748
739
733
737
748
764
776
785
788
783
774
765
755
751
752
758
761
764
760
751
743
736
729
734
744
755
768
776
778
772
762
754
745
737
738
747
753
757
758
750
740
733
727
730
742
754
769
778
780
771
764
755
745
740
740
744
750
754
753
747
737
730
722
723
734
749
759
764
763
759
750
742
733
726
724
726
731
735
732
726
717
710
703
706
717
732
745
756
757
753
742
735
727
720
723
730
736
738
737
731
723
714
710
714
725
743
756
764
764
757
749
741
732
725
726
732
737
740
738
730
720
713
706
713
723
738
749
755
756
752
743
735
727
723
724
730
734
737
735
726
719
709
704
709
719
734
748
759
765
760
751
743
734
730
733
740
747
752
750
741
735
726
720
725
734
751
764
774
779
773
765
755
746
740
738
742
746
748
745
737
729
722
716
717
729
742
752
761
762
754
747
738
730
726
724
729
735
736
732
722
713
706
701
706
718
731
743
752
756
752
744
736
726
723
727
735
744
748
746
738
730
721
717
724
737
751
763
773
776
772
760
751
744
741
743
751
758
764
760
751
745
735
731
738
747
762
774
779
778
771
761
752
744
739
741
748
753
755
752
744
735
727
723
727
743
755
768
774
775
768
760
749
742
737
740
746
753
757
756
746
738
729
724
730
738
750
758
764
766
762
752
744
736
731
733
743
747
752
748
740
731
722
719
725
737
749
759
768
765
758
750
741
732
730
731
737
744
747
746
738
731
722
717
723
736
751
763
769
766
761
751
742
736
736
743
754
764
769
768
760
751
742
735
739
749
761
770
776
775
767
757
749
742
738
740
748
753
758
756
747
738
730
724
727
737
750
761
767
769
764
753
745
736
733
735
740
743
745
743
735
726
718
714
720
733
748
759
765
765
757
749
742
731
729
731
737
741
741
739
729
722
713
711
717
728
741
749
753
750
743
734
725
717
714
719
726
731
734
729
719
711
704
702
711
725
741
751
758
758
751
744
734
724
724
726
735
740
744
740
731
724
715
712
720
731
744
752
758
756
749
739
730
723
724
730
739
747
752
747
738
730
722
718
722
734
747
756
761
759
750
743
735
726
725
730
736
745
748
745
735
726
718
716
723
737
752
761
766
762
753
743
736
727
728
732
739
744
746
743
734
726
717
712
716
730
742
751
756
752
747
737
729
723
722
730
739
745
749
746
737
728
719
716
723
734
748
756
761
758
749
741
732
725
725
730
737
741
742
736
728
720
712
706
714
725
738
746
751
748
740
730
721
716
715
721
730
738
743
740
732
723
715
710
713
725
737
747
750
745
737
730
720
714
711
718
725
732
736
731
723
714
705
704
709
720
731
739
742
739
730
722
713
707
708
714
721
729
730
725
716
708
700
699
708
723
737
745
749
747
741
730
722
718
718
723
732
739
743
739
732
724
715
712
718
730
742
749
751
747
740
731
721
718
719
726
736
744
748
744
734
727
717
715
717
725
735
742
750
752
749
739
731
723
723
732
743
751
761
759
753
742
734
728
732
741
753
760
764
758
749
741
732
726
726
734
744
749
751
744
735
727
718
717
725
737
749
755
761
755
747
737
729
722
722
727
734
739
740
734
727
716
710
711
721
735
749
760
764
761
752
744
735
729
726
728
733
734
733
723
717
708
700
701
711
725
739
748
755
750
741
733
723
718
721
729
741
746
748
740
732
724
715
715
723
737
747
756
759
755
746
737
726
724
723
732
740
743
746
738
728
722
712
712
716
726
738
743
747
744
737
727
719
717
721
730
739
746
747
744
736
727
719
714
722
732
743
748
750
743
736
727
718
714
715
725
733
739
743
737
729
720
712
710
718
730
740
748
750
745
735
727
719
713
717
728
739
749
752
747
739
730
723
720
728
739
750
758
760
757
748
739
731
725
726
732
741
748
750
743
733
724
717
715
719
729
740
749
752
748
739
730
722
716
715
719
725
729
729
723
715
707
699
701
710
726
737
743
748
745
738
728
719
712
714
719
725
730
730
725
717
708
701
702
714
730
744
753
756
751
742
733
724
719
717
725
730
734
732
724
717
707
702
705
717
732
745
753
758
752
744
735
726
720
720
726
729
732
730
721
713
705
698
701
711
726
736
742
743
736
729
720
711
704
704
708
715
718
716
710
702
694
689
694
707
719
736
746
750
747
740
731
722
715
714
720
724
727
729
723
715
707
700
704
715
730
745
751
755
749
741
731
723
716
717
723
730
734
733
725
717
709
704
709
720
733
745
753
756
749
739
732
723
717
721
728
735
740
739
732
723
716
709
714
723
737
747
755
756
750
741
732
723
718
719
725
731
733
732
725
715
706
700
703
713
725
737
745
749
743
733
724
718
713
717
723
731
734
733
723
716
708
703
706
713
724
733
742
743
742
735
726
718
713
718
727
735
743
745
742
732
724
717
717
725
736
749
754
752
745
735
727
719
716
717
721
724
719
714
706
696
690
693
705
717
726
731
734
730
721
713
704
696
696
700
707
717
722
719
711
703
694
691
699
712
731
746
757
760
755
747
737
729
723
725
730
734
734
730
722
715
707
703
708
719
735
747
758
761
756
749
740
731
727
730
734
739
742
738
729
721
712
710
714
728
742
753
760
763
758
752
742
734
729
729
735
740
742
738
730
721
714
717
728
745
761
773
780
779
771
762
752
743
742
745
751
754
755
750
743
732
724
717
712
711
715
720
728
732
728
720
713
705
702
699
706
712
716
713
706
697
690
685
689
698
710
717
723
722
716
708
700
691
689
691
698
704
710
706
700
690
683
678
682
694
707
713
716
714
710
702
693
687
687
697
706
716
723
724
716
709
700
694
698
708
719
726
732
730
723
714
706
698
699
706
715
724
729
727
718
712
703
698
701
711
723
730
732
730
723
715
708
702
697
698
700
704
707
715
718
716
711
703
695
696
702
703
703
696
729
791
851
907
953
959
953
974
986
974
960
949
937
925
921
933
945
939
927
922
924
924
912
902
898
888
885
896
905
899
897
906
900
887
875
871
869
859
849
844
849
852
848
839
828
830
839
833
823
818
834
853
872
898
920
943
952
946
936
927
930
946
960
960
953
998
1085
1174
1240
1278
1285
1277
1259
1275
1343
1437
1524
1534
1576
1657
1743
1803
1788
1771
1790
1908
2037
2101
2091
2164
2272
2325
2312
2274
2238
2207
2177
2146
2130
2145
2149
2136
2143
2119
2139
2208
2313
2396
2406
2370
2347
2315
2288
2281
2272
2286
2333
2406
2497
2599
2673
2667
2630
2611
2614
2590
2602
2645
2680
2700
2713
2716
2689
2655
2639
2709
2869
3036
3146
3204
3230
3241
3244
3270
3335
3411
3480
3524
3538
3553
3587
3629
3676
3767
3865
3868
3869
3868
3868
3868
3865
3866
3867
3867
3866
3866
3868
3868
3869
3868
3868
3866
3867
3869
3868
3868
3868
3869
3869
3869
3869
3868
3867
3868
3870
3868
3868
3868
3869
3869
3869
3869
3868
3866
3870
3869
3869
3867
3869
3869
3858
3867
3866
3870
3869
3868
3866
3865
3872
3869
3868
3869
3869
3867
3868
3869
3869
3868
3867
3869
3868
3868
3868
3867
3867
3866
3870
3870
3869
3867
3869
3868
3870
3868
3868
3867
3869
3868
3869
3869
3864
3869
3869
3871
3870
3868
3866
3868
3869
3869
3870
3868
3870
3869
3869
3868
3868
3869
3869
3869
3865
3865
3866
3866
3867
3865
3865
3865
3865
3865
3841
3821
3782
3736
3715
3721
3736
3713
3658
3617
3572
3532
3529
3516
3463
3409
3373
3390
3428
3421
3380
3343
3302
3298
3304
3310
3337
3311
3261
3220
3184
3147
3102
3085
3079
3065
3031
3006
2970
2943
2919
2875
2845
2816
2793
2756
2729
2707
2665
2635
2628
2608
2645
2660
2669
2703
2704
2678
2655
2628
2613
2586
2556
2548
2559
2529
2519
2503
2465
2426
2403
2392
2395
2441
2510
2575
2614
2598
2559
2520
2480
2443
2411
2389
2359
2326
2290
2256
2224
2198
2188
2188
2201
2244
2288
2314
2376
2438
2505
2552
2546
2547
2539
2512
2478
2447
2422
2398
2369
2395
2391
2410
2431
2508
2574
2640
2718
2809
2885
2942
2988
3030
3049
3030
3017
2983
2956
3025
3046
3029
3010
2989
3044
3122
3198
3279
3374
3456
3488
3492
3502
3549
3602
3635
3630
3607
3585
3533
3505
3497
3456
3517
3676
3801
3840
3865
3866
3864
3865
3865
3864
3864
3864
3865
3865
3865
3865
3865
3867
3865
3865
3865
3865
3864
3865
3865
3864
3864
3864
3865
3865
3864
3864
3867
3865
3865
3865
3866
3865
3865
3865
3864
3865
3864
3864
3865
3864
3864
3865
3865
3864
3864
3865
3865
3867
3865
3864
3866
3865
3865
3869
3868
3866
3864
3866
3864
3864
3864
3865
3865
3864
3865
3865
3869
3870
3866
3865
3866
3864
3864
3865
3866
3865
3864
3865
3864
3866
3866
3867
3865
3865
3867
3865
3864
3865
3864
3866
3865
3866
3865
3865
3864
3865
3866
3864
3865
3864
3866
3865
3865
3866
3866
3866
3865
3866
3866
3865
3865
3865
3864
3864
3866
3865
3865
3864
3865
3864
3864
3865
3865
3865
3866
3864
3866
3866
3867
3864
3865
3866
3864
3868
3865
3865
3864
3864
3865
3864
3865
3866
3865
3865
3866
3867
3866
3866
3865
3865
3865
3866
3866
3865
3865
3865
3867
3866
3865
3865
3866
3864
3866
3865
3865
3863
3864
3866
3866
3865
3866
3864
3864
3863
3865
3865
3865
3865
3864
3865
3865
3866
3865
3864
3865
3865
3863
3864
3866
3865
3864
3865
3865
3864
3865
3865
3864
3865
3865
3865
3865
3865
3865
3864
3865
3865
3866
3864
3866
3866
3863
3864
3864
3865
3865
3866
3865
3863
3866
3865
3864
3866
3864
3865
3864
3865
3870
3867
3866
3865
3865
3865
3865
3864
3865
3864
3865
3865
3865
3864
3865
3865
3866
3864
3866
3866
3866
3864
3867
3865
3866
3864
3864
3864
3865
3864
3865
3865
3863
3866
3866
3864
3865
3866
3864
3865
3866
3870
3865
3867
3866
3866
3865
3866
3865
3864
3864
3864
3865
3865
3865
3866
3864
3864
3866
3865
3866
3869
3870
3866
3865
3864
3866
3868
3864
3865
3864
3866
3865
3863
3865
3866
3866
3866
3865
3864
3865
3865
3866
3866
3867
3865
3865
3866
3865
3865
3864
3863
3865
3865
3864
3865
3864
3864
3865
3865
3866
3867
3865
3866
3865
3865
3866
3867
3865
3866
3863
3864
3865
3865
3864
3866
3864
3866
3865
3865
3865
3869
3868
3869
3864
3863
3865
3864
3864
3866
3863
3863
3864
3866
3864
3865
3865
3864
3866
3867
3869
3869
3867
3865
3865
3865
3865
3866
3865
3867
3864
3865
3864
3866
3865
3864
3865
3865
3866
3865
3865
3866
3863
3865
3868
3867
3866
3866
3865
3865
3865
3865
3864
3865
3865
3866
3866
3865
3866
3865
3866
3867
3866
3865
3864
3864
3865
3864
3866
3863
3864
3866
3864
3865
3866
3866
3864
3865
3863
3866
3867
3867
3865
3864
3865
3865
3865
3865
3863
3863
3864
3864
3859
3864
3865
3864
3865
3864
3865
3866
3865
3866
3865
3865
3864
3865
3866
3864
3865
3865
3865
3865
3865
3865
3865
3865
3865
3865
3866
3865
3864
3865
3865
3866
3868
3864
3865
3864
3865
3865
3865
3865
3864
3864
3864
3864
3866
3868
3869
3864
3865
3865
3864
3864
3864
3865
3864
3865
3865
3866
3864
3864
3865
3864
3865
3865
3865
3866
3864
3865
3865
3866
3866
3866
3814
3769
3743
3782
3828
3863
3865
3861
3863
3865
3864
3865
3864
3864
3863
3866
3864
3866
3841
3791
3754
3733
3727
3727
3726
3747
3778
3812
3839
3853
3862
3864
3864
3863
3849
3815
3770
3721
3668
3625
3588
3562
3547
3539
3529
3540
3561
3591
3622
3651
3670
3681
3679
3669
3647
3613
3566
3513
3464
3418
3378
3347
3328
3320
3320
3336
3361
3390
3419
3442
3463
3473
3482
3465
3438
3386
3334
3287
3238
3184
3147
3115
3068
3022
2996
3048
3145
3239
3298
3343
3382
3402
3405
3416
3407
3386
3359
3326
3308
3287
3249
3265
3290
3295
3351
3434
3516
3611
3665
3682
3694
3707
3724
3729
3713
3682
3641
3592
3540
3497
3458
3432
3416
3408
3409
3427
3457
3489
3521
3548
3569
3578
3575
3563
3539
3502
3456
3407
3357
3312
3275
3249
3232
3228
3232
3248
3275
3310
3343
3374
3400
3411
3412
3401
3365
3314
3261
3213
3175
3150
3121
3104
3096
3096
3119
3150
3167
3167
3176
3195
3203
3198
3191
3211
3197
3153
3107
3078
3067
3046
3020
2990
2979
3004
3043
3052
3058
3108
3208
3303
3347
3353
3372
3377
3369
3331
3279
3235
3198
3172
3148
3121
3095
3083
3075
3082
3104
3125
3139
3172
3224
3237
3221
3184
3146
3125
3117
3098
3068
3038
3010
2991
2984
2985
2998
3022
3054
3092
3125
3154
3178
3190
3192
3183
3160
3123
3079
3032
2986
2942
2907
2879
2868
2859
2868
2887
2907
2927
2955
2988
3012
3023
3021
3015
2993
2958
2914
2869
2826
2785
2748
2725
2713
2710
2717
2738
2762
2802
2839
2872
2896
2910
2910
2905
2884
2853
2810
2768
2727
2686
2647
2624
2614
2609
2620
2645
2676
2710
2745
2772
2788
2795
2793
2779
2756
2722
2682
2640
2601
2559
2525
2499
2487
2483
2491
2512
2539
2577
2611
2639
2661
2670
2673
2665
2646
2615
2575
2535
2498
2463
2437
2423
2419
2426
2443
2480
2522
2573
2623
2662
2704
2731
2752
2761
2763
2755
2739
2719
2705
2697
2701
2719
2750
2791
2848
2920
2998
3085
3173
3256
3334
3400
3456
3504
3541
3568
3578
3590
3603
3622
3652
3693
3743
3807
3863
3864
3864
3866
3865
3865
3864
3865
3868
3865
3865
3866
3865
3865
3865
3866
3865
3865
3864
3864
3865
3864
3866
3864
3865
3865
3865
3864
3865
3865
3865
3866
3866
3866
3866
3866
3866
3866
3865
3865
3866
3864
3865
3865
3865
3865
3866
3867
3866
3864
3868
3866
3866
3866
3866
3868
3864
3867
3865
3864
3866
3866
3864
3866
3865
3865
3865
3865
3867
3865
3867
3866
3867
3869
3834
3775
3717
3664
3607
3550
3497
3447
3406
3364
3321
3271
3222
3174
3134
3107
3093
3093
3103
3111
3118
3120
3118
3106
3086
3061
3031
2993
2954
2915
2881
2854
2834
2827
2831
2839
2860
2886
2920
2952
2982
3012
3028
3038
3043
3040
3030
3010
2991
2964
2948
2936
2935
2940
2957
2977
3009
3047
3090
3134
3171
3201
3230
3244
3249
3250
3244
3229
3212
3196
3184
3179
3182
3194
3217
3244
3281
3324
3371
3419
3463
3501
3530
3550
3559
3566
3563
3549
3539
3525
3514
3511
3517
3531
3552
3576
3613
3656
3700
3746
3783
3816
3842
3853
3857
3857
3852
3835
3824
3812
3803
3795
3792
3798
3809
3830
3857
3867
3868
3867
3867
3868
3867
3869
3868
3868
3869
3867
3868
3870
3869
3866
3868
3868
3869
3869
3868
3867
3868
3867
3866
3870
3868
3869
3868
3867
3870
3869
3868
3868
3869
3868
3870
3869
3867
3867
3869
3868
3866
3867
3868
3868
3867
3868
3870
3867
3868
3871
3869
3869
3868
3869
3867
3869
3869
3869
3867
3868
3866
3868
3869
3869
3869
3868
3868
3867
3868
3868
3867
3867
3868
3868
3869
3870
3868
3869
3869
3868
3867
3867
3868
3869
3869
3870
3868
3869
3868
3869
3867
3867
3869
3865
3839
3823
3813
3809
3812
3824
3841
3854
3865
3868
3869
3864
3850
3829
3800
3761
3719
3678
3642
3612
3595
3586
3584
3586
3599
3607
3619
3631
3641
3648
3645
3640
3625
3605
3575
3538
3500
3464
3434
3408
3393
3385
3387
3390
3407
3431
3453
3477
3497
3509
3517
3517
3505
3491
3463
3429
3394
3361
3332
3311
3296
3293
3291
3293
3303
3322
3346
3376
3411
3438
3455
3459
3449
3432
3409
3376
3344
3309
3283
3262
3252
3248
3252
3262
3281
3310
3339
3366
3389
3405
3414
3411
3404
3390
3366
3336
3304
3271
3243
3223
3212
3211
3217
3228
3250
3280
3311
3343
3365
3387
3397
3399
3392
3380
3357
3330
3298
3264
3239
3224
3216
3215
3225
3236
3257
3287
3316
3346
3372
3393
3399
3399
3394
3383
3362
3333
3305
3278
3254
3237
3227
3227
3234
3250
3274
3306
3339
3372
3397
3416
3427
3428
3424
3413
3394
3366
3333
3301
3276
3260
3251
3249
3257
3271
3292
3324
3356
3388
3413
3435
3443
3443
3438
3426
3408
3381
3354
3325
3305
3288
3282
3284
3291
3307
3331
3364
3399
3436
3464
3484
3490
3490
3485
3471
3449
3423
3394
3364
3341
3326
3314
3316
3324
3338
3362
3390
3421
3449
3474
3488
3498
3495
3490
3476
3449
3421
3390
3362
3337
3321
3312
3310
3319
3328
3351
3377
3409
3435
3456
3472
3479
3476
3468
3455
3433
3402
3372
3342
3316
3296
3286
3283
3287
3298
3317
3343
3369
3392
3410
3422
3425
3418
3406
3387
3359
3323
3289
3256
3228
3205
3190
3189
3190
3196
3217
3237
3261
3282
3299
3309
3311
3307
3294
3277
3251
3217
3181
3146
3114
3091
3077
3071
3068
3075
3090
3113
3134
3155
3169
3178
3176
3171
3158
3139
3112
3076
3041
3007
2981
2959
2948
2942
2941
2950
2965
2985
3010
3032
3049
3057
3057
3048
3035
3013
2980
2944
2903
2864
2832
2810
2798
2799
2802
2814
2831
2852
2873
2896
2911
2921
2921
2915
2897
2876
2847
2812
2776
2742
2714
2694
2681
2678
2680
2689
2710
2733
2758
2781
2799
2811
2813
2807
2792
2775
2747
2716
2681
2650
2621
2601
2593
2588
2596
2607
2626
2654
2680
2708
2721
2730
2730
2721
2707
2689
2662
2630
2596
2567
2539
2518
2509
2509
2513
2527
2550
2575
2601
2626
2644
2656
2657
2651
2639
2621
2595
2562
2529
2497
2472
2455
2443
2444
2451
2465
2487
2513
2543
2572
2594
2605
2608
2604
2594
2576
2550
2521
2486
2457
2434
2417
2409
2406
2411
2423
2447
2476
2505
2535
2555
2569
2569
2563
2550
2532
2510
2481
2453
2428
2409
2397
2391
2390
2395
2410
2432
2460
2489
2513
2534
2549
2555
2551
2543
2526
2502
2470
2440
2414
2389
2374
2368
2373
2379
2395
2419
2448
2480
2509
2531
2545
2552
2549
2540
2522
2497
2465
2435
2408
2386
2370
2362
2363
2371
2387
2409
2442
2472
2500
2519
2530
2536
2533
2520
2502
2478
2447
2418
2391
2367
2352
2343
2346
2352
2365
2387
2413
2441
2467
2482
2493
2496
2492
2482
2466
2435
2405
2368
2336
2308
2291
2283
2287
2296
2314
2338
2363
2390
2411
2429
2441
2443
2435
2425
2403
2375
2340
2307
2273
2247
2230
2220
2218
2220
2233
2255
2279
2303
2324
2337
2346
2346
2337
2321
2303
2273
2238
2206
2175
2152
2133
2125
2124
2129
2141
2162
2190
2214
2236
2252
2260
2261
2252
2238
2217
2188
2155
2122
2093
2066
2047
2037
2039
2041
2055
2070
2094
2118
2138
2153
2162
2160
2153
2137
2114
2083
2053
2020
1992
1965
1946
1937
1937
1944
1956
1976
1999
2022
2042
2057
2065
2064
2058
2045
2020
1992
1962
1934
1904
1879
1857
1857
1855
1859
1869
1885
1908
1932
1952
1966
1974
1970
1960
1946
1922
1895
1867
1839
1813
1785
1769
1762
1761
1766
1781
1802
1827
1853
1872
1888
1898
1896
1886
1874
1851
1825
1798
1771
1748
1721
1703
1697
1700
1705
1719
1741
1767
1795
1816
1832
1840
1842
1832
1820
1798
1770
1746
1721
1695
1672
1653
1648
1650
1657
1674
1696
1721
1747
1767
1781
1791
1791
1783
1771
1748
1724
1700
1674
1649
1626
1611
1605
1606
1613
1629
1651
1672
1697
1717
1733
1742
1745
1742
1730
1711
1688
1662
1639
1615
1593
1577
1573
1575
1583
1600
1623
1650
1678
1699
1715
1725
1724
1716
1704
1684
1662
1636
1615
1591
1570
1553
1551
1555
1562
1581
1605
1633
1658
1682
1700
1707
1708
1699
1687
1667
1642
1619
1597
1573
1551
1531
1524
1527
1534
1548
1572
1598
1626
1647
1666
1675
1677
1669
1656
1637
1611
1591
1567
1545
1522
1507
1501
1501
1511
1526
1551
1578
1601
1626
1644
1654
1654
1647
1633
1612
1589
1565
1544
1521
1500
1483
1476
1480
1488
1503
1526
1551
1574
1596
1612
1616
1608
1598
1584
1562
1541
1516
1496
1475
1453
1440
1435
1436
1443
1459
1480
1505
1530
1550
1562
1568
1566
1556
1541
1520
1499
1477
1455
1435
1415
1398
1389
1390
1398
1413
1433
1459
1479
1500
1513
1520
1516
1507
1492
1471
1450
1431
1411
1391
1371
1353
1341
1341
1344
1361
1381
1405
1428
1445
1457
1461
1456
1446
1431
1410
1393
1370
1353
1335
1316
1299
1286
1283
1285
1295
1315
1337
1357
1375
1384
1387
1385
1374
1356
1337
1318
1301
1284
1266
1248
1233
1219
1214
1215
1226
1247
1269
1291
1310
1320
1325
1323
1314
1300
1282
1264
1245
1229
1212
1196
1180
1168
1162
1164
1176
1194
1217
1236
1253
1265
1270
1263
1251
1235
1216
1202
1185
1170
1154
1139
1125
1113
1112
1119
1134
1154
1178
1198
1213
1224
1225
1220
1211
1196
1181
1164
1150
1135
1120
1104
1090
1077
1070
1071
1083
1105
1130
1154
1172
1183
1188
1184
1172
1157
1142
1128
1112
1098
1084
1071
1056
1044
1039
1044
1058
1079
1102
1125
1143
1156
1159
1156
1146
1130
1115
1101
1087
1073
1060
1046
1033
1019
1016
1019
1033
1053
1077
1100
1119
1132
1136
1131
1123
1112
1097
1081
1069
1055
1041
1029
1015
1003
997
1002
1016
1040
1064
1084
1100
1113
1117
1109
1097
1081
1068
1056
1042
1031
1017
1006
991
980
973
975
990
1013
1038
1061
1079
1089
1087
1079
1064
1050
1037
1023
1011
1000
987
975
962
949
944
946
957
977
999
1023
1043
1056
1058
1053
1038
1025
1010
999
987
980
970
959
945
935
926
925
938
957
978
997
1011
1023
1024
1019
1007
994
982
970
959
949
938
927
916
905
898
897
909
927
948
968
984
994
996
988
977
966
954
941
933
928
920
909
897
887
879
878
889
908
928
947
963
972
971
966
954
941
930
919
912
909
903
893
881
870
861
862
873
893
914
931
944
952
950
942
932
918
907
897
890
884
878
869
857
847
839
839
853
873
894
915
928
936
936
932
921
909
899
888
881
881
876
871
861
851
842
837
847
866
886
904
918
926
926
921
907
895
885
876
873
870
865
857
846
834
827
828
837
856
874
892
903
913
911
904
893
882
870
863
862
863
861
857
845
835
828
826
837
852
867
882
895
903
904
898
888
877
866
859
855
852
845
836
825
816
807
809
818
834
853
869
880
887
884
875
865
855
844
836
834
832
828
820
811
801
791
790
800
818
838
856
870
878
878
871
861
848
838
831
827
823
818
809
801
790
783
788
800
819
840
857
870
877
874
866
855
844
834
830
831
836
835
828
817
808
799
794
801
815
833
849
860
867
864
855
843
834
824
822
822
824
824
822
812
802
792
791
801
818
836
852
863
868
865
854
843
833
825
823
824
825
826
822
811
801
792
784
791
802
822
839
852
857
854
844
834
823
816
811
814
819
816
814
802
792
784
783
792
807
824
836
844
847
842
830
821
812
804
802
810
813
817
818
808
800
788
783
789
802
818
832
841
843
837
827
817
807
799
796
796
800
800
798
787
778
769
765
771
783
799
813
824
827
824
815
804
795
787
786
790
794
797
791
783
774
764
759
767
783
802
813
825
829
824
813
805
794
788
784
790
793
794
793
784
776
766
762
769
782
799
811
821
825
820
810
801
792
783
781
782
783
780
774
765
755
747
747
757
775
792
806
817
821
817
807
798
788
781
775
776
776
775
768
759
751
742
742
751
770
788
801
812
816
812
801
792
781
774
769
768
767
764
760
749
741
734
734
745
762
781
796
807
812
808
799
788
779
774
769
771
769
764
757
747
739
730
735
749
766
787
803
811
812
809
799
790
781
773
773
775
778
776
769
762
752
742
744
757
775
794
807
818
825
820
812
801
792
785
782
782
785
781
775
766
757
750
747
758
772
790
803
813
817
811
803
793
783
778
777
782
785
785
780
772
762
753
753
763
779
792
804
814
816
810
800
791
781
774
773
779
780
780
773
764
755
745
747
755
772
789
800
806
803
797
787
778
769
762
760
763
766
766
763
752
743
735
736
743
755
772
782
787
789
785
774
765
757
754
757
764
772
774
772
762
753
746
742
749
765
779
793
800
800
791
783
773
765
761
764
771
777
781
777
768
758
751
743
746
757
770
779
785
785
776
767
758
749
749
754
764
771
775
772
763
756
747
740
745
754
768
778
785
782
774
764
755
749
747
753
765
774
781
779
770
760
751
747
754
768
781
793
799
797
791
781
772
764
760
762
771
778
781
778
771
760
752
747
757
769
783
792
796
794
784
776
765
758
758
765
775
782
788
788
781
770
760
758
760
770
784
792
797
795
786
777
769
760
758
760
765
771
773
771
762
753
744
738
742
750
763
772
777
775
766
760
747
739
735
736
739
743
744
737
729
720
714
712
723
738
752
763
769
766
759
752
743
733
729
730
738
742
742
737
728
720
712
711
722
735
752
765
774
776
769
759
751
741
740
745
751
759
762
757
749
739
731
729
738
752
766
779
787
790
786
777
768
760
752
754
756
759
760
759
749
741
733
731
737
748
762
773
779
778
772
762
753
746
741
743
748
750
750
746
737
727
720
719
731
749
767
779
785
783
775
765
756
748
746
749
755
759
761
756
748
739
730
728
736
748
762
771
774
772
764
755
744
738
738
743
752
758
759
754
746
738
730
726
730
738
749
757
759
758
747
740
731
726
726
734
741
746
749
746
737
729
721
716
722
733
744
752
756
753
743
733
727
723
728
740
753
764
770
767
759
751
740
737
742
752
760
767
768
762
753
745
735
731
734
746
759
769
774
769
759
750
742
739
744
754
765
770
770
764
755
747
739
733
735
746
756
764
769
767
756
749
740
734
738
747
758
765
769
763
754
746
737
731
733
742
750
758
760
755
749
739
730
726
732
742
751
758
760
754
748
737
729
722
725
732
740
744
747
743
734
727
718
716
725
737
747
755
758
756
747
738
729
723
722
730
738
743
745
738
731
722
713
716
724
738
748
756
760
755
747
738
728
722
720
722
724
724
723
717
708
699
694
695
707
722
735
744
749
746
737
729
720
716
714
718
721
721
719
711
703
695
689
693
708
724
737
747
757
755
748
738
731
723
722
728
737
744
744
738
728
720
714
720
731
748
763
773
777
773
766
756
747
739
739
742
748
751
750
744
733
727
720
725
737
749
765
775
780
776
766
756
747
741
737
739
742
742
742
734
725
717
711
715
727
742
755
766
771
768
757
749
741
734
734
740
746
748
749
742
734
724
718
720
730
745
755
763
765
758
751
741
732
725
726
730
734
738
738
731
723
713
705
705
710
722
732
740
744
738
731
721
714
707
708
715
723
725
728
721
712
703
696
697
705
717
729
737
740
735
726
717
711
703
705
714
720
725
729
725
716
708
701
702
707
720
731
738
741
735
725
717
708
705
708
718
726
733
733
728
720
712
705
706
716
731
742
749
751
745
738
728
720
715
719
727
736
739
742
735
726
717
710
712
725
737
748
755
758
752
742
734
726
722
722
730
739
747
744
737
729
719
715
722
734
746
756
762
762
756
747
738
730
726
727
734
743
745
745
737
729
719
714
717
729
743
756
766
769
763
755
746
737
731
733
738
742
746
745
737
728
720
715
719
731
747
758
768
770
764
755
748
738
734
735
743
748
752
751
743
734
726
721
728
744
759
772
780
781
775
765
757
748
742
741
745
749
750
746
737
730
720
717
726
740
756
770
776
777
770
759
751
741
738
737
740
742
743
739
728
721
712
711
721
735
752
765
774
777
774
763
755
747
741
742
747
751
752
748
740
729
722
721
728
741
756
768
777
779
774
765
756
747
740
738
739
739
737
730
720
712
704
703
708
720
734
745
754
756
752
743
734
726
721
726
733
738
742
738
729
721
713
710
718
734
752
765
773
775
769
760
750
741
737
736
740
742
743
737
730
719
711
711
720
735
751
764
773
774
769
760
751
742
738
739
743
746
747
741
731
723
715
717
729
748
767
781
789
787
781
771
761
753
750
753
762
769
774
772
763
752
744
740
745
759
773
784
790
790
781
771
762
754
748
748
753
756
755
751
743
733
725
722
729
742
757
768
774
774
765
757
748
740
739
742
746
749
746
739
729
721
713
711
719
733
746
759
764
764
757
747
739
730
728
732
740
745
749
747
738
728
720
715
722
731
746
756
767
767
758
749
743
732
730
734
740
747
750
746
736
729
721
719
724
737
750
759
765
763
756
747
739
731
731
739
746
752
757
753
744
738
726
724
732
741
758
769
776
775
769
758
749
742
738
740
747
753
756
752
744
733
725
722
728
741
756
766
774
773
763
754
746
738
737
743
753
757
760
755
745
737
728
725
733
743
758
766
772
769
763
752
743
735
734
738
745
748
751
746
737
730
722
722
730
744
759
769
777
773
764
757
747
738
734
737
743
746
748
741
732
724
715
715
724
737
749
761
767
768
758
749
741
732
730
733
739
742
739
730
722
714
710
716
728
744
758
770
774
773
765
756
746
737
734
735
735
738
737
727
720
713
711
725
742
761
777
786
786
778
769
759
752
747
750
760
770
777
779
773
763
754
744
744
750
761
777
787
794
793
785
775
765
757
754
757
762
766
763
757
749
740
732
731
737
749
760
773
779
781
775
766
756
747
745
749
752
755
756
750
740
732
724
727
736
750
764
772
780
780
773
763
753
746
740
744
748
752
754
750
740
732
725
725
736
750
765
774
781
777
769
761
750
742
742
745
751
756
754
749
741
733
724
724
733
748
761
772
776
773
764
757
748
741
736
740
745
745
744
737
729
719
712
717
730
744
756
764
769
763
756
746
738
731
732
739
748
755
755
747
738
730
724
727
736
750
764
773
778
778
769
761
752
745
740
744
749
753
752
748
739
729
722
722
730
743
752
762
765
758
749
740
732
726
727
735
746
750
752
748
739
730
722
720
728
739
749
758
761
759
752
742
735
728
727
733
742
750
755
748
740
731
725
727
737
751
763
768
771
764
755
745
737
730
728
732
737
739
738
729
722
715
706
706
715
725
738
747
750
745
736
727
719
714
715
722
727
732
731
724
715
705
700
702
713
728
743
751
758
754
745
737
729
722
720
724
729
729
727
720
710
703
697
701
715
733
746
756
761
757
749
739
731
724
724
728
737
739
737
730
722
714
706
709
719
731
743
751
753
751
742
735
725
718
720
725
734
740
740
732
724
715
708
711
719
732
743
750
751
747
738
729
720
715
716
723
731
735
739
732
723
714
707
708
717
731
741
749
751
747
739
730
720
715
716
723
728
731
733
726
717
709
702
704
715
730
741
749
751
746
738
729
721
718
720
726
732
736
736
728
721
712
705
709
721
736
748
756
758
752
744
734
726
722
723
730
737
739
738
730
722
713
707
710
720
736
749
758
757
752
744
734
726
722
720
723
726
728
729
723
715
707
699
701
711
726
737
745
746
740
732
722
715
712
715
722
730
737
736
728
721
712
706
707
717
729
740
747
749
741
734
726
716
712
714
717
723
728
727
720
714
705
697
701
709
721
731
736
738
731
722
714
706
701
704
712
719
726
724
719
711
701
696
698
711
725
734
741
742
733
726
718
711
708
712
719
725
732
732
726
718
708
702
704
713
726
736
740
741
730
722
714
707
702
704
711
718
723
721
715
705
698
693
698
709
722
732
735
734
727
719
710
701
699
704
714
720
727
726
720
711
702
698
700
713
729
743
749
749
742
733
724
718
715
722
732
741
749
753
745
736
728
720
720
728
740
748
752
752
744
734
727
719
716
719
728
738
743
744
736
728
719
712
715
723
733
742
747
746
739
731
721
715
716
719
727
732
733
730
722
714
707
701
706
717
732
743
752
755
748
740
731
723
720
724
730
736
739
737
729
720
713
707
712
724
737
748
755
757
748
740
731
725
723
728
737
746
752
749
742
732
724
719
727
738
753
763
768
770
762
754
744
734
730
733
739
747
752
750
742
733
724
720
725
737
752
762
769
773
766
757
748
738
734
737
742
746
747
743
734
724
718
713
721
736
749
761
768
765
757
747
740
730
727
732
741
749
754
753
744
735
727
726
732
745
757
771
777
778
769
759
750
743
741
745
751
757
759
756
747
738
730
726
731
744
756
766
771
768
762
751
742
733
731
734
740
744
746
742
733
725
716
712
717
730
744
754
765
767
760
751
743
733
730
730
739
743
744
742
731
724
716
714
721
735
750
764
773
775
768
759
750
740
740
744
752
758
761
761
751
743
733
733
736
748
761
773
780
777
771
760
751
743
741
742
751
758
761
755
747
739
728
724
729
743
757
768
776
772
763
754
746
737
734
737
745
752
756
755
747
739
728
724
728
740
750
761
767
765
758
748
739
731
730
733
741
746
749
747
738
730
722
717
722
735
743
753
753
751
745
734
726
718
717
721
728
732
733
729
720
712
704
701
710
723
734
742
745
741
735
725
717
710
707
713
717
725
726
723
715
706
700
697
704
709
720
727
732
730
726
717
709
700
696
698
704
705
706
701
693
685
678
679
686
699
714
722
728
725
717
709
702
694
693
696
702
707
709
703
694
686
679
678
687
700
714
723
730
729
721
713
705
697
695
699
708
712
713
707
698
690
683
685
696
711
724
735
740
737
729
721
713
706
704
709
713
715
717
710
702
694
686
687
697
711
725
734
740
738
729
722
713
706
705
709
716
720
722
716
708
700
692
690
695
706
717
726
733
732
727
718
712
704
699
699
703
708
706
700
692
684
677
679
690
706
721
731
738
737
729
721
711
706
704
708
712
715
713
706
698
688
683
684
694
707
719
730
734
732
722
714
706
698
697
701
705
706
705
697
690
682
676
679
690
707
720
730
734
733
724
716
707
700
698
702
706
710
710
705
696
688
681
680
691
704
719
729
734
730
722
715
707
699
700
705
712
717
720
712
705
696
689
692
700
713
723
728
733
729
721
714
705
699
700
706
713
717
716
710
702
694
688
692
704
720
731
740
743
739
732
723
715
710
706
711
715
717
713
706
698
690
683
686
696
713
726
736
740
737
730
722
712
707
706
712
718
721
723
719
710
701
696
703
714
728
741
749
751
748
739
730
721
715
713
718
721
727
725
718
708
700
695
699
712
730
744
754
760
754
745
735
727
722
722
730
737
740
738
731
722
714
710
716
728
743
756
762
766
761
751
743
735
728
727
731
734
735
734
729
720
711
704
707
721
734
746
755
759
755
746
739
729
724
721
722
725
725
720
713
705
697
694
701
713
729
743
753
758
756
748
739
729
726
726
732
738
738
733
725
716
707
704
709
722
735
747
756
761
758
750
742
732
724
721
726
730
731
728
720
712
705
703
715
726
746
759
769
771
764
755
747
738
730
732
738
742
744
741
733
724
716
711
716
728
744
757
767
773
768
759
751
741
736
736
740
743
745
741
734
725
717
713
721
734
749
762
770
774
770
759
750
742
734
731
733
735
735
729
722
713
706
700
705
716
728
739
749
754
748
739
728
722
719
721
725
727
727
725
715
708
700
696
702
716
732
743
750
752
747
738
731
722
714
714
719
722
725
721
714
705
697
692
700
713
729
744
750
752
746
738
728
721
717
717
719
725
727
724
717
708
699
697
704
718
736
748
758
762
756
745
737
729
727
732
740
747
750
747
740
733
724
718
723
735
750
761
770
773
766
757
747
740
736
737
744
750
751
748
739
731
721
717
723
732
742
747
753
750
743
734
724
717
711
713
719
724
725
723
716
706
700
694
698
710
722
731
735
735
727
718
710
702
702
704
712
717
718
716
707
698
692
688
695
707
720
733
741
740
733
725
717
710
706
707
715
718
720
716
709
701
693
690
697
709
721
730
737
738
733
724
715
706
702
704
707
712
710
708
699
691
682
682
694
708
724
737
744
745
740
731
721
713
708
707
716
721
725
723
715
706
699
701
711
727
743
757
767
766
761
752
744
734
728
731
737
740
741
737
728
720
711
711
721
735
750
761
769
770
766
756
746
739
732
733
736
737
737
731
722
713
707
707
719
734
747
760
767
768
761
752
743
735
729
728
734
734
733
728
719
711
704
706
720
735
752
766
776
779
774
764
756
747
744
745
750
753
752
743
736
726
719
720
731
744
758
772
779
779
773
764
754
747
743
744
745
747
746
739
729
721
713
715
723
738
753
767
776
778
772
762
752
743
740
742
747
748
747
741
733
723
717
718
728
743
758
772
778
779
771
762
752
744
740
741
744
747
745
739
730
722
714
715
726
743
758
767
774
775
769
759
750
742
736
734
737
740
737
732
722
716
707
709
718
731
743
753
759
759
755
747
737
729
726
728
731
737
736
730
721
714
705
704
714
725
740
752
759
761
753
743
736
727
726
729
735
737
738
730
722
713
705
705
712
725
738
748
754
754
747
736
730
720
721
721
725
730
728
721
712
705
697
701
712
725
740
748
755
753
747
737
730
721
720
723
729
733
734
727
719
712
705
702
711
723
738
749
757
755
746
737
729
722
720
726
731
736
733
725
718
710
703
707
717
729
743
750
752
749
740
731
723
715
715
718
724
725
725
719
710
703
695
695
707
721
735
746
751
751
744
733
725
717
715
718
724
728
727
719
711
702
697
704
717
733
749
759
767
766
757
749
740
732
728
729
733
734
732
724
716
707
701
705
719
734
749
759
766
767
758
749
741
732
726
723
723
720
718
710
702
692
687
693
704
720
735
747
754
753
746
736
728
720
719
722
725
725
720
713
705
696
691
698
709
726
741
751
757
756
750
741
731
724
721
725
727
728
725
718
709
700
696
699
714
728
744
752
756
754
746
736
728
721
719
722
728
728
724
717
707
700
696
701
715
733
747
759
764
761
754
745
737
729
727
728
730
732
729
721
711
705
698
703
719
734
749
757
762
759
751
742
734
727
725
727
731
733
733
725
715
708
701
705
714
730
742
750
754
751
743
734
727
718
714
715
716
719
717
709
701
693
689
696
709
724
736
744
744
741
732
722
714
709
710
714
720
721
719
711
703
695
689
691
704
719
734
746
749
746
737
730
722
714
713
715
719
720
721
713
706
696
691
694
706
720
735
744
749
745
736
729
720
714
712
716
720
720
720
711
703
696
688
692
705
722
732
742
743
738
729
721
713
706
704
705
710
712
709
702
694
686
682
688
701
715
727
737
741
737
730
719
712
704
704
709
713
714
714
706
698
689
684
686
697
712
726
737
742
740
732
724
715
710
709
710
715
715
711
703
696
687
683
687
698
710
722
727
732
728
718
710
703
699
701
709
714
716
714
707
698
690
686
691
705
719
732
740
742
738
729
721
713
706
705
706
712
711
708
699
691
682
681
689
703
720
735
744
748
742
733
725
717
711
709
714
718
716
713
704
697
689
686
691
704
718
731
739
744
738
729
721
713
707
706
707
709
710
704
696
687
681
680
687
701
718
729
738
743
738
730
721
712
706
704
706
710
710
705
699
691
682
679
686
697
711
722
732
735
735
726
718
710
704
703
708
713
712
710
701
694
686
683
688
697
709
720
727
727
724
715
707
698
695
693
699
702
701
698
690
683
675
672
677
690
708
720
729
734
728
721
713
704
699
699
700
702
700
694
688
680
672
671
678
692
709
724
734
740
736
726
719
711
705
705
710
715
718
713
706
697
689
688
695
708
720
729
736
736
729
722
712
706
699
698
701
702
702
699
692
684
676
676
685
701
719
732
738
741
735
723
717
709
707
710
714
719
722
718
710
702
693
689
696
709
720
731
737
737
732
724
713
706
702
703
708
711
711
708
700
693
684
679
685
697
712
723
729
728
725
716
708
701
694
695
701
703
707
704
695
689
679
676
683
695
710
722
727
726
719
710
703
696
694
696
701
707
708
704
697
688
681
679
689
702
717
731
738
741
735
728
719
710
706
707
715
720
723
721
712
705
696
693
696
706
718
726
732
732
723
715
708
699
694
695
700
704
703
698
689
681
674
672
680
691
704
716
724
724
717
709
701
694
692
697
703
709
711
707
698
690
682
678
684
697
710
719
728
728
721
713
703
697
693
691
694
698
697
692
685
677
671
667
675
686
700
710
716
716
707
697
690
683
680
683
690
694
697
691
684
677
668
669
676
690
700
710
715
715
707
699
691
683
682
688
694
704
707
703
694
687
680
681
688
699
713
724
729
727
719
710
702
696
693
698
707
711
713
709
700
692
683
681
689
703
716
726
731
729
721
714
707
700
696
704
708
714
717
713
706
698
689
687
694
706
717
727
732
729
720
710
705
697
697
701
707
712
712
707
699
693
684
680
686
693
706
715
720
718
711
701
694
687
685
689
694
699
699
694
687
678
671
669
680
694
709
719
724
720
712
704
696
690
690
695
704
707
707
700
692
684
678
678
685
696
708
716
719
718
712
703
695
687
687
691
697
700
700
694
687
680
671
667
676
689
701
711
715
711
704
694
687
681
681
685
695
698
701
694
686
679
672
669
679
691
705
712
717
714
706
697
691
683
682
686
691
695
695
688
680
673
668
670
683
697
711
721
724
720
711
705
695
689
691
695
701
706
706
703
695
686
679
681
690
705
719
728
732
730
722
712
706
699
698
700
705
707
708
698
691
683
676
679
690
703
715
724
728
726
717
709
702
694
692
696
700
702
700
693
684
677
672
678
690
707
721
733
739
736
728
721
712
703
699
700
704
704
700
693
685
679
674
679
694
709
724
734
741
742
733
724
716
708
703
705
708
706
703
695
688
678
676
683
697
715
730
740
750
749
742
735
724
717
711
711
714
715
714
706
699
691
684
688
700
716
733
744
750
746
739
732
723
715
710
710
711
710
705
698
691
682
680
686
702
719
738
751
756
752
743
735
725
719
715
717
718
716
712
706
697
689
682
687
699
715
730
740
748
746
739
730
722
715
713
713
715
715
711
704
695
689
682
688
699
714
727
736
739
735
728
719
710
704
702
703
708
709
706
699
692
684
679
685
699
713
728
740
747
747
740
729
722
717
719
722
725
723
716
708
701
694
698
712
726
729
723
716
721
739
745
737
728
720
711
705
701
721
751
784
832
894
951
968
980
1064
1170
1251
1285
1281
1273
1296
1370
1458
1529
1563
1566
1541
1519
1497
1490
1518
1581
1639
1672
1670
1646
1636
1624
1610
1636
1678
1695
1676
1659
1672
1708
1732
1730
1708
1679
1659
1642
1642
1646
1635
1633
1683
1779
1874
1901
1890
1940
1964
1965
2056
2160
2206
2186
2201
2225
2209
2186
2263
2408
2549
2571
2627
2806
2935
2932
2989
3166
3335
3502
3648
3647
3702
3833
3866
3869
3866
3866
3864
3866
3864
3865
3864
3865
3859
3866
3869
3867
3866
3867
3869
3866
3864
3859
3812
3752
3692
3655
3718
3860
3867
3867
3869
3868
3869
3866
3867
3867
3868
3866
3867
3869
3868
3869
3869
3868
3868
3868
3868
3867
3867
3866
3866
3868
3868
3868
3867
3868
3869
3866
3868
3869
3866
3867
3869
3868
3868
3869
3867
3866
3866
3868
3867
3867
3868
3868
3867
3868
3870
3868
3867
3867
3866
3868
3868
3868
3868
3868
3869
3869
3868
3868
3869
3868
3867
3866
3868
3867
3867
3868
3869
3869
3868
3867
3868
3869
3869
3868
3867
3868
3869
3868
3868
3869
3868
3867
3868
3867
3869
3869
3869
3869
3867
3869
3868
3869
3868
3870
3869
3867
3868
3869
3870
3867
3869
3869
3869
3870
3864
3867
3869
3870
3870
3868
3869
3868
3868
3869
3868
3867
